time_s,amplitude_mv
0.000000,0.009721
0.002778,0.008723
0.005556,0.074511
0.008333,0.057239
0.011111,-0.070179
0.013889,-0.078957
0.016667,-0.030470
0.019444,-0.006946
0.022222,0.045478
0.025000,0.041334
0.027778,0.079070
0.030556,0.039441
0.033333,-0.011601
0.036111,0.022231
0.038889,0.038799
0.041667,0.048393
0.044444,0.117590
0.047222,0.075718
0.050000,0.102137
0.052778,0.046172
0.055556,0.041804
0.058333,0.062012
0.061111,0.172064
0.063889,0.171218
0.066667,0.169362
0.069444,0.146247
0.072222,0.140081
0.075000,0.123992
0.077778,0.148497
0.080556,0.193373
0.083333,0.281016
0.086111,0.208110
0.088889,0.173091
0.091667,0.118270
0.094444,0.131694
0.097222,0.151445
0.100000,0.144773
0.102778,0.152728
0.105556,0.154891
0.108333,0.165027
0.111111,0.115010
0.113889,0.067081
0.116667,0.020299
0.119444,0.064685
0.122222,0.081791
0.125000,0.080629
0.127778,0.061413
0.130556,-0.014438
0.133333,-0.041462
0.136111,-0.057023
0.138889,0.000148
0.141667,0.088798
0.144444,0.105199
0.147222,0.206597
0.150000,0.270552
0.152778,0.364211
0.155556,0.525270
0.158333,0.771300
0.161111,0.893644
0.163889,1.084025
0.166667,1.038603
0.169444,1.005961
0.172222,0.873297
0.175000,0.714517
0.177778,0.563037
0.180556,0.438536
0.183333,0.292613
0.186111,0.174123
0.188889,0.090579
0.191667,-0.056801
0.194444,-0.174092
0.197222,-0.210061
0.200000,-0.208171
0.202778,-0.160483
0.205556,-0.181171
0.208333,-0.195746
0.211111,-0.263262
0.213889,-0.253759
0.216667,-0.203518
0.219444,-0.157783
0.222222,-0.052622
0.225000,-0.028687
0.227778,-0.002504
0.230556,-0.014904
0.233333,-0.051394
0.236111,0.012081
0.238889,0.025128
0.241667,0.089937
0.244444,0.134005
0.247222,0.126268
0.250000,0.097885
0.252778,0.039603
0.255556,0.021728
0.258333,0.059129
0.261111,0.056001
0.263889,0.096294
0.266667,0.099786
0.269444,0.078639
0.272222,0.083718
0.275000,0.030988
0.277778,0.069267
0.280556,0.165332
0.283333,0.155537
0.286111,0.197622
0.288889,0.123534
0.291667,0.109550
0.294444,0.069583
0.297222,0.105795
0.300000,0.186746
0.302778,0.155599
0.305556,0.239262
0.308333,0.217264
0.311111,0.158593
0.313889,0.111752
0.316667,0.169759
0.319444,0.195246
0.322222,0.267944
0.325000,0.288539
0.327778,0.327133
0.330556,0.240078
0.333333,0.190824
0.336111,0.231943
0.338889,0.271541
0.341667,0.356023
0.344444,0.372401
0.347222,0.354572
0.350000,0.356459
0.352778,0.245079
0.355556,0.256532
0.358333,0.277479
0.361111,0.340343
0.363889,0.344594
0.366667,0.404521
0.369444,0.346695
0.372222,0.270170
0.375000,0.266950
0.377778,0.324894
0.380556,0.380894
0.383333,0.448952
0.386111,0.478088
0.388889,0.370442
0.391667,0.282756
0.394444,0.220122
0.397222,0.298326
0.400000,0.298918
0.402778,0.343344
0.405556,0.342116
0.408333,0.325348
0.411111,0.312436
0.413889,0.247984
0.416667,0.234668
0.419444,0.235278
0.422222,0.249118
0.425000,0.294762
0.427778,0.282007
0.430556,0.288014
0.433333,0.196536
0.436111,0.210836
0.438889,0.188844
0.441667,0.203174
0.444444,0.227051
0.447222,0.216622
0.450000,0.257534
0.452778,0.124649
0.455556,0.157744
0.458333,0.124311
0.461111,0.216355
0.463889,0.225089
0.466667,0.200747
0.469444,0.165529
0.472222,0.102541
0.475000,0.114281
0.477778,0.101994
0.480556,0.116880
0.483333,0.147395
0.486111,0.192330
0.488889,0.202631
0.491667,0.116185
0.494444,0.082035
0.497222,0.103763
0.500000,0.171517
0.502778,0.176241
0.505556,0.167451
0.508333,0.188052
0.511111,0.125083
0.513889,0.127984
0.516667,0.090774
0.519444,0.082937
0.522222,0.119309
0.525000,0.227676
0.527778,0.211997
0.530556,0.114136
0.533333,0.073514
0.536111,0.125318
0.538889,0.078333
0.541667,0.127021
0.544444,0.197647
0.547222,0.155837
0.550000,0.129505
0.552778,0.086753
0.555556,0.091159
0.558333,0.147820
0.561111,0.150746
0.563889,0.197568
0.566667,0.113403
0.569444,0.139173
0.572222,0.074864
0.575000,0.046084
0.577778,0.074514
0.580556,0.132005
0.583333,0.204472
0.586111,0.141232
0.588889,0.152403
0.591667,0.095200
0.594444,0.075994
0.597222,0.127181
0.600000,0.151878
0.602778,0.214489
0.605556,0.180997
0.608333,0.140837
0.611111,0.113219
0.613889,0.097642
0.616667,0.099661
0.619444,0.096761
0.622222,0.173135
0.625000,0.195430
0.627778,0.246545
0.630556,0.186799
0.633333,0.070568
0.636111,0.084148
0.638889,0.079033
0.641667,0.147596
0.644444,0.199301
0.647222,0.215342
0.650000,0.119260
0.652778,0.083470
0.655556,0.027997
0.658333,0.112033
0.661111,0.127394
0.663889,0.173515
0.666667,0.159654
0.669444,0.148754
0.672222,0.058265
0.675000,0.049358
0.677778,0.175336
0.680556,0.113883
0.683333,0.154442
0.686111,0.246353
0.688889,0.248727
0.691667,0.084537
0.694444,0.084601
0.697222,0.117035
0.700000,0.197148
0.702778,0.154177
0.705556,0.187552
0.708333,0.194176
0.711111,0.141979
0.713889,0.087945
0.716667,0.099072
0.719444,0.096628
0.722222,0.171716
0.725000,0.188892
0.727778,0.186145
0.730556,0.121852
0.733333,0.118188
0.736111,0.130885
0.738889,0.135191
0.741667,0.183319
0.744444,0.198734
0.747222,0.186333
0.750000,0.126507
0.752778,0.119467
0.755556,0.096232
0.758333,0.186299
0.761111,0.212914
0.763889,0.207277
0.766667,0.169227
0.769444,0.124224
0.772222,0.152601
0.775000,0.106977
0.777778,0.131443
0.780556,0.105603
0.783333,0.220459
0.786111,0.210023
0.788889,0.133262
0.791667,0.110392
0.794444,0.108268
0.797222,0.112924
0.800000,0.140939
0.802778,0.184949
0.805556,0.191475
0.808333,0.179410
0.811111,0.176912
0.813889,0.025915
0.816667,0.099519
0.819444,0.146562
0.822222,0.190986
0.825000,0.188824
0.827778,0.129430
0.830556,0.151155
0.833333,0.159099
0.836111,0.057832
0.838889,0.159992
0.841667,0.166792
0.844444,0.199679
0.847222,0.159830
0.850000,0.144177
0.852778,0.156325
0.855556,0.125669
0.858333,0.186662
0.861111,0.214916
0.863889,0.226064
0.866667,0.265624
0.869444,0.196701
0.872222,0.173186
0.875000,0.128043
0.877778,0.164066
0.880556,0.190014
0.883333,0.283990
0.886111,0.231968
0.888889,0.270661
0.891667,0.209354
0.894444,0.235949
0.897222,0.243986
0.900000,0.323547
0.902778,0.337492
0.905556,0.286585
0.908333,0.313389
0.911111,0.242471
0.913889,0.234818
0.916667,0.300189
0.919444,0.307549
0.922222,0.305412
0.925000,0.309249
0.927778,0.316644
0.930556,0.230852
0.933333,0.203991
0.936111,0.220322
0.938889,0.265336
0.941667,0.280237
0.944444,0.205850
0.947222,0.259807
0.950000,0.199393
0.952778,0.153244
0.955556,0.157181
0.958333,0.048010
0.961111,0.112389
0.963889,0.161187
0.966667,0.085309
0.969444,0.147921
0.972222,0.093553
0.975000,0.125359
0.977778,0.154542
0.980556,0.314148
0.983333,0.462214
0.986111,0.576871
0.988889,0.707141
0.991667,0.833825
0.994444,0.925657
0.997222,1.062558
1.000000,1.137519
1.002778,1.152444
1.005556,1.074110
1.008333,0.833499
1.011111,0.645315
1.013889,0.494837
1.016667,0.284486
1.019444,0.196975
1.022222,0.174254
1.025000,0.136565
1.027778,0.032183
1.030556,-0.021308
1.033333,-0.113937
1.036111,-0.152203
1.038889,-0.152957
1.041667,-0.065452
1.044444,-0.110105
1.047222,-0.154211
1.050000,-0.052765
1.052778,-0.114797
1.055556,-0.068447
1.058333,0.030441
1.061111,0.019224
1.063889,0.087567
1.066667,0.094902
1.069444,0.100126
1.072222,0.107124
1.075000,0.099001
1.077778,0.114152
1.080556,0.107477
1.083333,0.117474
1.086111,0.193970
1.088889,0.150052
1.091667,0.137678
1.094444,0.122651
1.097222,0.118817
1.100000,0.178153
1.102778,0.203168
1.105556,0.226053
1.108333,0.167988
1.111111,0.145166
1.113889,0.130421
1.116667,0.156993
1.119444,0.159696
1.122222,0.232817
1.125000,0.232259
1.127778,0.224377
1.130556,0.217830
1.133333,0.104719
1.136111,0.128428
1.138889,0.159527
1.141667,0.183141
1.144444,0.264340
1.147222,0.303744
1.150000,0.242099
1.152778,0.226102
1.155556,0.249826
1.158333,0.289186
1.161111,0.297344
1.163889,0.377814
1.166667,0.344080
1.169444,0.289198
1.172222,0.263060
1.175000,0.225721
1.177778,0.268113
1.180556,0.331194
1.183333,0.406556
1.186111,0.443137
1.188889,0.324982
1.191667,0.340339
1.194444,0.276654
1.197222,0.335917
1.200000,0.358196
1.202778,0.346911
1.205556,0.441273
1.208333,0.370911
1.211111,0.330046
1.213889,0.282419
1.216667,0.296139
1.219444,0.360053
1.222222,0.378472
1.225000,0.407294
1.227778,0.385204
1.230556,0.367308
1.233333,0.276385
1.236111,0.231765
1.238889,0.330597
1.241667,0.322959
1.244444,0.382457
1.247222,0.341171
1.250000,0.278794
1.252778,0.246080
1.255556,0.274287
1.258333,0.293329
1.261111,0.266221
1.263889,0.289895
1.266667,0.304854
1.269444,0.203877
1.272222,0.189894
1.275000,0.152954
1.277778,0.172940
1.280556,0.171546
1.283333,0.175974
1.286111,0.157960
1.288889,0.149873
1.291667,0.120995
1.294444,0.095520
1.297222,0.167513
1.300000,0.175361
1.302778,0.146440
1.305556,0.191821
1.308333,0.140408
1.311111,0.097769
1.313889,0.078056
1.316667,0.091119
1.319444,0.093619
1.322222,0.173422
1.325000,0.122237
1.327778,0.136175
1.330556,0.170651
1.333333,0.062543
1.336111,0.093088
1.338889,0.080806
1.341667,0.135815
1.344444,0.139292
1.347222,0.123428
1.350000,0.065444
1.352778,0.062121
1.355556,0.011498
1.358333,0.080098
1.361111,0.133703
1.363889,0.140994
1.366667,0.116749
1.369444,0.103402
1.372222,0.038805
1.375000,0.057408
1.377778,-0.008576
1.380556,0.076309
1.383333,0.060480
1.386111,0.078261
1.388889,0.133385
1.391667,0.076475
1.394444,0.003056
1.397222,-0.010228
1.400000,-0.016512
1.402778,0.093701
1.405556,0.192840
1.408333,0.108320
1.411111,0.035673
1.413889,0.035819
1.416667,-0.021989
1.419444,0.049829
1.422222,0.101846
1.425000,0.113429
1.427778,0.121165
1.430556,0.066246
1.433333,0.040625
1.436111,-0.004473
1.438889,0.072282
1.441667,0.135600
1.444444,0.081150
1.447222,0.071966
1.450000,0.099648
1.452778,0.014810
1.455556,0.051003
1.458333,0.019127
1.461111,0.117429
1.463889,0.106878
1.466667,0.106267
1.469444,0.110112
1.472222,0.010763
1.475000,-0.025212
1.477778,0.006690
1.480556,0.073801
1.483333,0.047139
1.486111,0.116180
1.488889,0.050268
1.491667,0.058022
1.494444,-0.073224
1.497222,-0.014800
1.500000,-0.004241
1.502778,0.059120
1.505556,0.101526
1.508333,0.063729
1.511111,0.018652
1.513889,-0.009158
1.516667,0.004649
1.519444,0.002155
1.522222,0.093683
1.525000,0.109461
1.527778,0.082513
1.530556,0.046077
1.533333,0.002895
1.536111,0.050610
1.538889,0.016066
1.541667,0.050804
1.544444,0.060887
1.547222,0.040822
1.550000,-0.004613
1.552778,-0.033012
1.555556,-0.020174
1.558333,0.015447
1.561111,0.048284
1.563889,0.052897
1.566667,0.098414
1.569444,0.058200
1.572222,-0.010366
1.575000,-0.043798
1.577778,0.009329
1.580556,0.038562
1.583333,0.023323
1.586111,0.067634
1.588889,0.046875
1.591667,-0.030856
1.594444,-0.023188
1.597222,-0.062368
1.600000,0.058886
1.602778,0.093761
1.605556,0.058905
1.608333,0.052364
1.611111,-0.073719
1.613889,-0.066777
1.616667,-0.037998
1.619444,-0.027512
1.622222,0.066123
1.625000,0.121688
1.627778,0.007827
1.630556,-0.023604
1.633333,-0.026819
1.636111,0.009983
1.638889,-0.045922
1.641667,0.039537
1.644444,0.110161
1.647222,-0.005754
1.650000,-0.033720
1.652778,-0.047084
1.655556,-0.061717
1.658333,0.001734
1.661111,0.025922
1.663889,-0.005479
1.666667,0.059343
1.669444,-0.008594
1.672222,0.005710
1.675000,-0.069517
1.677778,-0.052068
1.680556,0.024156
1.683333,0.065762
1.686111,0.060658
1.688889,-0.032187
1.691667,-0.006066
1.694444,-0.075421
1.697222,-0.023723
1.700000,-0.031830
1.702778,0.066686
1.705556,0.044945
1.708333,0.012155
1.711111,0.036497
1.713889,-0.000221
1.716667,-0.014170
1.719444,0.091029
1.722222,0.084152
1.725000,0.125483
1.727778,0.124012
1.730556,0.065556
1.733333,0.072143
1.736111,0.045982
1.738889,0.086086
1.741667,0.186638
1.744444,0.142452
1.747222,0.092307
1.750000,0.174863
1.752778,0.163014
1.755556,0.059928
1.758333,0.032999
1.761111,0.117116
1.763889,0.139606
1.766667,0.129580
1.769444,0.057155
1.772222,0.056335
1.775000,0.025408
1.777778,-0.029532
1.780556,0.063521
1.783333,0.123004
1.786111,0.051571
1.788889,-0.015373
1.791667,-0.075226
1.794444,-0.099212
1.797222,-0.175770
1.800000,-0.088203
1.802778,-0.061605
1.805556,0.035605
1.808333,-0.014528
1.811111,0.051933
1.813889,0.015601
1.816667,0.175282
1.819444,0.337374
1.822222,0.502123
1.825000,0.718562
1.827778,0.881321
1.830556,0.898386
1.833333,0.859023
1.836111,0.865616
1.838889,0.760692
1.841667,0.664485
1.844444,0.521973
1.847222,0.293044
1.850000,0.109683
1.852778,0.014071
1.855556,-0.121755
1.858333,-0.234047
1.861111,-0.153445
1.863889,-0.191580
1.866667,-0.269139
1.869444,-0.356419
1.872222,-0.355102
1.875000,-0.395785
1.877778,-0.310259
1.880556,-0.307943
1.883333,-0.243196
1.886111,-0.218428
1.888889,-0.178881
1.891667,-0.188531
1.894444,-0.160325
1.897222,-0.175022
1.900000,-0.113014
1.902778,-0.060768
1.905556,-0.001293
1.908333,0.002532
1.911111,-0.093915
1.913889,-0.119954
1.916667,-0.092153
1.919444,-0.072791
1.922222,0.005380
1.925000,-0.071411
1.927778,-0.044907
1.930556,-0.082580
1.933333,-0.161272
1.936111,-0.121921
1.938889,-0.087963
1.941667,-0.021518
1.944444,0.045381
1.947222,-0.002735
1.950000,-0.060713
1.952778,-0.065561
1.955556,-0.038732
1.958333,-0.070315
1.961111,-0.020979
1.963889,0.058590
1.966667,0.037444
1.969444,0.035151
1.972222,-0.018952
1.975000,-0.008525
1.977778,-0.035691
1.980556,0.043115
1.983333,0.079252
1.986111,0.060399
1.988889,0.027807
1.991667,0.060954
1.994444,0.013387
1.997222,0.011908
2.000000,0.085609
2.002778,0.168089
2.005556,0.083993
2.008333,0.090222
2.011111,0.071940
2.013889,0.119786
2.016667,0.093865
2.019444,0.148271
2.022222,0.136555
2.025000,0.159117
2.027778,0.191714
2.030556,0.141961
2.033333,0.124099
2.036111,0.099629
2.038889,0.144039
2.041667,0.182326
2.044444,0.224175
2.047222,0.212368
2.050000,0.098759
2.052778,0.038398
2.055556,0.120981
2.058333,0.146170
2.061111,0.116744
2.063889,0.115570
2.066667,0.164214
2.069444,0.147604
2.072222,0.125384
2.075000,0.061286
2.077778,0.044368
2.080556,0.061127
2.083333,0.114241
2.086111,0.099796
2.088889,0.039526
2.091667,0.080376
2.094444,0.039268
2.097222,0.021825
2.100000,-0.010387
2.102778,0.072528
2.105556,0.068524
2.108333,0.030110
2.111111,0.004210
2.113889,-0.051839
2.116667,-0.052454
2.119444,-0.028051
2.122222,-0.002906
2.125000,-0.055231
2.127778,-0.023184
2.130556,-0.088962
2.133333,-0.150706
2.136111,-0.070613
2.138889,-0.044051
2.141667,-0.017454
2.144444,-0.030428
2.147222,-0.012294
2.150000,-0.094253
2.152778,-0.130057
2.155556,-0.182846
2.158333,-0.116611
2.161111,-0.087098
2.163889,-0.100383
2.166667,-0.068603
2.169444,-0.105977
2.172222,-0.092213
2.175000,-0.138755
2.177778,-0.148820
2.180556,-0.102195
2.183333,-0.074919
2.186111,-0.079753
2.188889,-0.137034
2.191667,-0.152125
2.194444,-0.195077
2.197222,-0.200061
2.200000,-0.109651
2.202778,-0.075637
2.205556,-0.130683
2.208333,-0.105610
2.211111,-0.114733
2.213889,-0.143254
2.216667,-0.141091
2.219444,-0.136575
2.222222,-0.122747
2.225000,-0.112505
2.227778,-0.087959
2.230556,-0.128171
2.233333,-0.135966
2.236111,-0.145678
2.238889,-0.153159
2.241667,-0.144807
2.244444,-0.093196
2.247222,-0.088420
2.250000,-0.139671
2.252778,-0.189611
2.255556,-0.175984
2.258333,-0.174802
2.261111,-0.136772
2.263889,-0.079047
2.266667,-0.104473
2.269444,-0.120043
2.272222,-0.160323
2.275000,-0.220889
2.277778,-0.183605
2.280556,-0.085531
2.283333,-0.129222
2.286111,-0.154487
2.288889,-0.177033
2.291667,-0.162708
2.294444,-0.187193
2.297222,-0.181005
2.300000,-0.103040
2.302778,-0.181636
2.305556,-0.078918
2.308333,-0.068473
2.311111,-0.191527
2.313889,-0.199243
2.316667,-0.207020
2.319444,-0.176909
2.322222,-0.119305
2.325000,-0.049088
2.327778,-0.054904
2.330556,-0.161174
2.333333,-0.128808
2.336111,-0.188817
2.338889,-0.107626
2.341667,-0.121168
2.344444,-0.090426
2.347222,-0.094557
2.350000,-0.048678
2.352778,-0.157025
2.355556,-0.214933
2.358333,-0.140614
2.361111,-0.138643
2.363889,-0.112798
2.366667,-0.074728
2.369444,-0.135866
2.372222,-0.169452
2.375000,-0.195436
2.377778,-0.168079
2.380556,-0.124783
2.383333,-0.161195
2.386111,-0.079575
2.388889,-0.159082
2.391667,-0.215152
2.394444,-0.198033
2.397222,-0.182977
2.400000,-0.168148
2.402778,-0.084255
2.405556,-0.138654
2.408333,-0.134975
2.411111,-0.182547
2.413889,-0.196411
2.416667,-0.183089
2.419444,-0.187193
2.422222,-0.094523
2.425000,-0.096613
2.427778,-0.173231
2.430556,-0.216157
2.433333,-0.192488
2.436111,-0.202527
2.438889,-0.169210
2.441667,-0.124934
2.444444,-0.093171
2.447222,-0.082527
2.450000,-0.182667
2.452778,-0.222868
2.455556,-0.231514
2.458333,-0.165870
2.461111,-0.095148
2.463889,-0.115608
2.466667,-0.181454
2.469444,-0.192189
2.472222,-0.206925
2.475000,-0.216565
2.477778,-0.194259
2.480556,-0.140059
2.483333,-0.115977
2.486111,-0.071484
2.488889,-0.153147
2.491667,-0.200851
2.494444,-0.184866
2.497222,-0.234369
2.500000,-0.137729
2.502778,-0.107784
2.505556,-0.103988
2.508333,-0.075667
2.511111,-0.183423
2.513889,-0.131958
2.516667,-0.195705
2.519444,-0.191165
2.522222,-0.108071
2.525000,-0.122262
2.527778,-0.127509
2.530556,-0.130368
2.533333,-0.156038
2.536111,-0.190106
2.538889,-0.106187
2.541667,-0.052410
2.544444,-0.012409
2.547222,-0.042373
2.550000,-0.046765
2.552778,-0.172911
2.555556,-0.127045
2.558333,-0.109125
2.561111,-0.027282
2.563889,-0.008224
2.566667,0.009610
2.569444,0.044980
2.572222,-0.049950
2.575000,-0.044196
2.577778,-0.041157
2.580556,0.011757
2.583333,0.045329
2.586111,0.061483
2.588889,0.050502
2.591667,0.018549
2.594444,-0.051689
2.597222,-0.039561
2.600000,-0.061785
2.602778,-0.000776
2.605556,0.031145
2.608333,-0.005813
2.611111,-0.078849
2.613889,-0.101133
2.616667,-0.124122
2.619444,-0.085972
2.622222,-0.093318
2.625000,-0.117475
2.627778,-0.136105
2.630556,-0.291087
2.633333,-0.232934
2.636111,-0.351657
2.638889,-0.243941
2.641667,-0.100852
2.644444,-0.021573
2.647222,-0.004041
2.650000,0.077408
2.652778,0.238068
2.655556,0.332050
2.658333,0.606265
2.661111,0.731569
2.663889,0.878714
2.666667,0.948585
2.669444,0.830425
2.672222,0.648335
2.675000,0.503138
2.677778,0.349646
2.680556,0.182326
2.683333,0.103457
2.686111,-0.026685
2.688889,-0.100307
2.691667,-0.243361
2.694444,-0.338098
2.697222,-0.373490
2.700000,-0.368578
2.702778,-0.352017
2.705556,-0.410992
2.708333,-0.443693
2.711111,-0.413710
2.713889,-0.467709
2.716667,-0.462026
2.719444,-0.332830
2.722222,-0.250466
2.725000,-0.253188
2.727778,-0.183556
2.730556,-0.180597
2.733333,-0.203879
2.736111,-0.183533
2.738889,-0.203250
2.741667,-0.101201
2.744444,-0.090549
2.747222,-0.103015
2.750000,-0.097710
2.752778,-0.115155
2.755556,-0.114167
2.758333,-0.101789
2.761111,-0.099749
2.763889,-0.053107
2.766667,-0.041237
2.769444,-0.091825
2.772222,-0.128670
2.775000,-0.121749
2.777778,-0.126070
2.780556,-0.100712
2.783333,-0.051677
2.786111,-0.011227
2.788889,-0.054376
2.791667,-0.080352
2.794444,-0.088342
2.797222,-0.102057
2.800000,-0.022799
2.802778,0.011521
2.805556,-0.018312
2.808333,0.045676
2.811111,-0.046552
2.813889,-0.102683
2.816667,-0.072131
2.819444,-0.028081
2.822222,0.053749
2.825000,0.070695
2.827778,0.059813
2.830556,0.056506
2.833333,0.022205
2.836111,0.026355
2.838889,0.067379
2.841667,0.123716
2.844444,0.073940
2.847222,0.122615
2.850000,0.036695
2.852778,0.071228
2.855556,0.064859
2.858333,0.125791
2.861111,0.176697
2.863889,0.180895
2.866667,0.159265
2.869444,0.156624
2.872222,0.087068
2.875000,0.085897
2.877778,0.133510
2.880556,0.127376
2.883333,0.201507
2.886111,0.199214
2.888889,0.117524
2.891667,0.129762
2.894444,0.093095
2.897222,0.081363
2.900000,0.088409
2.902778,0.117969
2.905556,0.132264
2.908333,0.133743
2.911111,0.039668
2.913889,0.044269
2.916667,-0.009958
2.919444,0.048096
2.922222,0.090527
2.925000,0.170600
2.927778,0.030216
2.930556,0.067077
2.933333,-0.014904
2.936111,-0.018301
2.938889,-0.004572
2.941667,0.040168
2.944444,0.039553
2.947222,0.070220
2.950000,-0.031728
2.952778,-0.028383
2.955556,-0.098304
2.958333,-0.061887
2.961111,-0.055139
2.963889,0.015899
2.966667,0.037609
2.969444,-0.046652
2.972222,-0.094692
2.975000,-0.143391
2.977778,-0.101961
2.980556,-0.104732
2.983333,-0.052113
2.986111,-0.016362
2.988889,-0.015341
2.991667,-0.014355
2.994444,-0.141860
2.997222,-0.071444
3.000000,-0.069871
3.002778,-0.044221
3.005556,-0.016405
3.008333,-0.052252
3.011111,-0.093248
3.013889,-0.138918
3.016667,-0.165041
3.019444,-0.134801
3.022222,-0.027996
3.025000,-0.037877
3.027778,-0.065092
3.030556,-0.087486
3.033333,-0.098166
3.036111,-0.119892
3.038889,-0.114665
3.041667,-0.015620
3.044444,0.019714
3.047222,-0.023229
3.050000,-0.046599
3.052778,-0.076273
3.055556,-0.089969
3.058333,-0.080595
3.061111,-0.038339
3.063889,-0.010177
3.066667,-0.061721
3.069444,-0.041740
3.072222,-0.143592
3.075000,-0.143944
3.077778,-0.062460
3.080556,-0.034855
3.083333,0.019867
3.086111,-0.028530
3.088889,-0.084135
3.091667,-0.098183
3.094444,-0.111448
3.097222,-0.100496
3.100000,-0.029846
3.102778,-0.035683
3.105556,-0.002635
3.108333,-0.066381
3.111111,-0.064598
3.113889,-0.107181
3.116667,-0.125366
3.119444,-0.074606
3.122222,-0.031512
3.125000,-0.015506
3.127778,0.028604
3.130556,-0.067583
3.133333,-0.105836
3.136111,-0.164396
3.138889,-0.097682
3.141667,-0.035913
3.144444,-0.023621
3.147222,0.028205
3.150000,-0.055759
3.152778,-0.049720
3.155556,-0.096719
3.158333,-0.072471
3.161111,-0.033407
3.163889,-0.000000
3.166667,0.048513
3.169444,-0.106511
3.172222,-0.137042
3.175000,-0.110401
3.177778,-0.075058
3.180556,-0.013217
3.183333,0.015645
3.186111,-0.005637
3.188889,0.007334
3.191667,-0.033675
3.194444,-0.082542
3.197222,-0.047486
3.200000,-0.029124
3.202778,-0.015085
3.205556,0.034395
3.208333,-0.006698
3.211111,-0.051313
3.213889,-0.036284
3.216667,-0.149549
3.219444,-0.083167
3.222222,-0.034659
3.225000,0.008684
3.227778,-0.005147
3.230556,-0.082780
3.233333,-0.100963
3.236111,-0.100145
3.238889,0.030059
3.241667,0.053263
3.244444,0.011873
3.247222,0.003154
3.250000,-0.057941
3.252778,-0.118235
3.255556,-0.074659
3.258333,-0.076071
3.261111,-0.005802
3.263889,-0.020600
3.266667,0.001642
3.269444,-0.004879
3.272222,-0.038394
3.275000,-0.053936
3.277778,-0.087433
3.280556,0.019425
3.283333,0.005179
3.286111,0.052636
3.288889,0.004230
3.291667,-0.078060
3.294444,-0.069712
3.297222,-0.037544
3.300000,0.008970
3.302778,0.025438
3.305556,0.087343
3.308333,0.048159
3.311111,-0.031082
3.313889,-0.029978
3.316667,0.010001
3.319444,0.046206
3.322222,-0.007842
3.325000,0.019848
3.327778,0.075116
3.330556,-0.041216
3.333333,-0.082398
3.336111,-0.059950
3.338889,-0.001737
3.341667,0.025951
3.344444,0.035176
3.347222,0.025169
3.350000,-0.012374
3.352778,-0.053464
3.355556,0.033051
3.358333,0.000851
3.361111,0.064253
3.363889,0.057102
3.366667,0.067441
3.369444,0.022674
3.372222,-0.069816
3.375000,-0.042169
3.377778,-0.029171
3.380556,0.007371
3.383333,0.083224
3.386111,0.172705
3.388889,0.112358
3.391667,0.121157
3.394444,0.081375
3.397222,0.114044
3.400000,0.111884
3.402778,0.202149
3.405556,0.227352
3.408333,0.170730
3.411111,0.167939
3.413889,0.141767
3.416667,0.113677
3.419444,0.130952
3.422222,0.167972
3.425000,0.220278
3.427778,0.204404
3.430556,0.123420
3.433333,0.105687
3.436111,0.109762
3.438889,0.131830
3.441667,0.192066
3.444444,0.197363
3.447222,0.106035
3.450000,0.134073
3.452778,0.012171
3.455556,0.028257
3.458333,0.001108
3.461111,0.007867
3.463889,-0.019710
3.466667,0.019626
3.469444,-0.050165
3.472222,0.005455
3.475000,0.040363
3.477778,0.043626
3.480556,0.195627
3.483333,0.306203
3.486111,0.449809
3.488889,0.623100
3.491667,0.725296
3.494444,0.905467
3.497222,0.955223
3.500000,1.075768
3.502778,1.048549
3.505556,0.973667
3.508333,0.758516
3.511111,0.555252
3.513889,0.355603
3.516667,0.191391
3.519444,0.152189
3.522222,0.099386
3.525000,0.041745
3.527778,-0.008333
3.530556,-0.102963
3.533333,-0.235137
3.536111,-0.249493
3.538889,-0.270493
3.541667,-0.215760
3.544444,-0.202095
3.547222,-0.124626
3.550000,-0.168073
3.552778,-0.184664
3.555556,-0.111896
3.558333,-0.148948
3.561111,-0.067074
3.563889,0.076090
3.566667,0.072897
3.569444,0.060652
3.572222,-0.015620
3.575000,0.013866
3.577778,0.098308
3.580556,0.107978
3.583333,0.126315
3.586111,0.114672
3.588889,0.088931
3.591667,-0.002355
3.594444,0.048009
3.597222,0.079785
3.600000,0.048897
3.602778,0.118333
3.605556,0.118381
3.608333,0.104192
3.611111,0.097255
3.613889,0.008156
3.616667,0.098051
3.619444,0.142445
3.622222,0.159048
3.625000,0.116292
3.627778,0.149570
3.630556,0.182573
3.633333,0.034896
3.636111,0.111706
3.638889,0.124488
3.641667,0.234269
3.644444,0.222505
3.647222,0.252539
3.650000,0.227860
3.652778,0.236597
3.655556,0.173496
3.658333,0.224165
3.661111,0.219489
3.663889,0.338638
3.666667,0.285316
3.669444,0.265410
3.672222,0.249235
3.675000,0.193361
3.677778,0.272831
3.680556,0.343270
3.683333,0.364650
3.686111,0.318362
3.688889,0.338352
3.691667,0.327537
3.694444,0.229357
3.697222,0.268365
3.700000,0.368462
3.702778,0.391084
3.705556,0.408033
3.708333,0.428202
3.711111,0.344583
3.713889,0.319820
3.716667,0.383770
3.719444,0.328591
3.722222,0.349111
3.725000,0.400276
3.727778,0.378633
3.730556,0.304113
3.733333,0.249033
3.736111,0.339813
3.738889,0.303943
3.741667,0.307603
3.744444,0.374276
3.747222,0.325285
3.750000,0.275142
3.752778,0.253595
3.755556,0.179222
3.758333,0.244930
3.761111,0.325971
3.763889,0.304628
3.766667,0.267944
3.769444,0.221807
3.772222,0.176475
3.775000,0.156104
3.777778,0.163291
3.780556,0.236248
3.783333,0.184985
3.786111,0.260438
3.788889,0.187540
3.791667,0.162707
3.794444,0.088257
3.797222,0.168113
3.800000,0.199514
3.802778,0.225159
3.805556,0.158121
3.808333,0.200772
3.811111,0.142828
3.813889,0.049823
3.816667,0.098402
3.819444,0.142421
3.822222,0.186979
3.825000,0.191703
3.827778,0.175711
3.830556,0.169017
3.833333,0.125817
3.836111,-0.001639
3.838889,0.103914
3.841667,0.149924
3.844444,0.125998
3.847222,0.170024
3.850000,0.166041
3.852778,0.057455
3.855556,0.089066
3.858333,0.075674
3.861111,0.125091
3.863889,0.219511
3.866667,0.155335
3.869444,0.151008
3.872222,0.040369
3.875000,0.134732
3.877778,0.115047
3.880556,0.132580
3.883333,0.190226
3.886111,0.134649
3.888889,0.182849
3.891667,0.095876
3.894444,0.075565
3.897222,0.078213
3.900000,0.114188
3.902778,0.191095
3.905556,0.189218
3.908333,0.177201
3.911111,0.115633
3.913889,0.101757
3.916667,0.077827
3.919444,0.192249
3.922222,0.119485
3.925000,0.222553
3.927778,0.208241
3.930556,0.101153
3.933333,0.159311
3.936111,0.118944
3.938889,0.148425
3.941667,0.162556
3.944444,0.179759
3.947222,0.169372
3.950000,0.149381
3.952778,0.141708
3.955556,0.094480
3.958333,0.086240
3.961111,0.180715
3.963889,0.213795
3.966667,0.202408
3.969444,0.170801
3.972222,0.099770
3.975000,0.062447
3.977778,0.082407
3.980556,0.100483
3.983333,0.191542
3.986111,0.185877
3.988889,0.145558
3.991667,0.028244
3.994444,0.055505
3.997222,0.137737
4.000000,0.122720
4.002778,0.192019
4.005556,0.150656
4.008333,0.211530
4.011111,0.122176
4.013889,0.105540
4.016667,0.170516
4.019444,0.181072
4.022222,0.167417
4.025000,0.176887
4.027778,0.167262
4.030556,0.151705
4.033333,0.098829
4.036111,0.086639
4.038889,0.172585
4.041667,0.167429
4.044444,0.264265
4.047222,0.187239
4.050000,0.199947
4.052778,0.118974
4.055556,0.126371
4.058333,0.100145
4.061111,0.138529
4.063889,0.207970
4.066667,0.220301
4.069444,0.157378
4.072222,0.076898
4.075000,0.056959
4.077778,0.072946
4.080556,0.103682
4.083333,0.194739
4.086111,0.229010
4.088889,0.165089
4.091667,0.055691
4.094444,0.093649
4.097222,0.105531
4.100000,0.211697
4.102778,0.143502
4.105556,0.186526
4.108333,0.225270
4.111111,0.145577
4.113889,0.119173
4.116667,0.109471
4.119444,0.150622
4.122222,0.204942
4.125000,0.175253
4.127778,0.208078
4.130556,0.099780
4.133333,0.116254
4.136111,0.108129
4.138889,0.114205
4.141667,0.174153
4.144444,0.180433
4.147222,0.156050
4.150000,0.139318
4.152778,0.078527
4.155556,0.110411
4.158333,0.090479
4.161111,0.188452
4.163889,0.161538
4.166667,0.176892
4.169444,0.140777
4.172222,0.158793
4.175000,0.111557
4.177778,0.113787
4.180556,0.176759
4.183333,0.134296
4.186111,0.201317
4.188889,0.234456
4.191667,0.138663
4.194444,0.115290
4.197222,0.144048
4.200000,0.196872
4.202778,0.153227
4.205556,0.179256
4.208333,0.218249
4.211111,0.155662
4.213889,0.194631
4.216667,0.158245
4.219444,0.153614
4.222222,0.224188
4.225000,0.207583
4.227778,0.275167
4.230556,0.245428
4.233333,0.212893
4.236111,0.262648
4.238889,0.303360
4.241667,0.310286
4.244444,0.279932
4.247222,0.354172
4.250000,0.314814
4.252778,0.268085
4.255556,0.274445
4.258333,0.229715
4.261111,0.360885
4.263889,0.294233
4.266667,0.333205
4.269444,0.216008
4.272222,0.187730
4.275000,0.232466
4.277778,0.185382
4.280556,0.246254
4.283333,0.247642
4.286111,0.222965
4.288889,0.215952
4.291667,0.102807
4.294444,0.010358
4.297222,0.034076
4.300000,0.105992
4.302778,0.145128
4.305556,0.116870
4.308333,0.153232
4.311111,0.169257
4.313889,0.223104
4.316667,0.302280
4.319444,0.495366
4.322222,0.693289
4.325000,0.923861
4.327778,1.057211
4.330556,1.092230
4.333333,1.087032
4.336111,1.059853
4.338889,0.953277
4.341667,0.830851
4.344444,0.687200
4.347222,0.516636
4.350000,0.315191
4.352778,0.196884
4.355556,0.108696
4.358333,-0.011380
4.361111,0.017555
4.363889,-0.012108
4.366667,-0.042793
4.369444,-0.122178
4.372222,-0.228227
4.375000,-0.248153
4.377778,-0.184448
4.380556,-0.092862
4.383333,-0.124017
4.386111,-0.005407
4.388889,0.030347
4.391667,-0.013437
4.394444,0.017457
4.397222,0.018737
4.400000,0.096058
4.402778,0.104943
4.405556,0.104985
4.408333,0.186559
4.411111,0.091352
4.413889,0.080527
4.416667,0.058581
4.419444,0.094373
4.422222,0.174028
4.425000,0.177009
4.427778,0.194311
4.430556,0.157865
4.433333,0.121673
4.436111,0.118163
4.438889,0.191143
4.441667,0.157101
4.444444,0.215248
4.447222,0.243786
4.450000,0.213615
4.452778,0.099236
4.455556,0.126431
4.458333,0.205978
4.461111,0.228108
4.463889,0.254469
4.466667,0.244583
4.469444,0.211475
4.472222,0.197601
4.475000,0.170578
4.477778,0.202031
4.480556,0.253999
4.483333,0.273605
4.486111,0.321419
4.488889,0.370918
4.491667,0.196046
4.494444,0.242797
4.497222,0.229114
4.500000,0.315337
4.502778,0.345336
4.505556,0.385127
4.508333,0.380402
4.511111,0.315568
4.513889,0.320229
4.516667,0.225517
4.519444,0.383560
4.522222,0.392738
4.525000,0.435890
4.527778,0.352654
4.530556,0.326373
4.533333,0.323206
4.536111,0.316041
4.538889,0.355575
4.541667,0.421596
4.544444,0.359448
4.547222,0.429013
4.550000,0.359317
4.552778,0.311483
4.555556,0.258637
4.558333,0.337526
4.561111,0.286885
4.563889,0.402807
4.566667,0.328508
4.569444,0.333342
4.572222,0.279967
4.575000,0.292989
4.577778,0.262280
4.580556,0.279226
4.583333,0.310831
4.586111,0.359090
4.588889,0.298187
4.591667,0.219451
4.594444,0.190705
4.597222,0.152788
4.600000,0.240920
4.602778,0.206073
4.605556,0.283835
4.608333,0.232589
4.611111,0.250170
4.613889,0.107876
4.616667,0.133979
4.619444,0.218431
4.622222,0.234174
4.625000,0.188869
4.627778,0.192415
4.630556,0.139076
4.633333,0.107339
4.636111,0.069055
4.638889,0.112369
4.641667,0.104679
4.644444,0.176695
4.647222,0.171284
4.650000,0.109022
4.652778,0.025725
4.655556,0.089783
4.658333,0.092431
4.661111,0.099166
4.663889,0.139970
4.666667,0.097433
4.669444,0.074996
4.672222,0.046887
4.675000,0.080245
4.677778,0.040431
4.680556,0.118127
4.683333,0.115980
4.686111,0.141937
4.688889,0.099144
4.691667,0.086322
4.694444,0.018758
4.697222,-0.002464
4.700000,0.040577
4.702778,0.103447
4.705556,0.091973
4.708333,0.116648
4.711111,0.047432
4.713889,0.101948
4.716667,-0.018530
4.719444,0.073555
4.722222,0.073669
4.725000,0.109818
4.727778,0.110263
4.730556,-0.005294
4.733333,0.036228
4.736111,0.081806
4.738889,0.040283
4.741667,0.103068
4.744444,0.149549
4.747222,0.102234
4.750000,0.050712
4.752778,-0.039143
4.755556,0.036711
4.758333,0.037617
4.761111,0.052022
4.763889,0.115372
4.766667,0.089668
4.769444,0.055993
4.772222,0.048498
4.775000,-0.028420
4.777778,0.060294
4.780556,0.027047
4.783333,0.082995
4.786111,0.163525
4.788889,0.109050
4.791667,0.035332
4.794444,-0.020779
4.797222,0.001768
4.800000,0.057417
4.802778,0.093916
4.805556,0.100270
4.808333,0.077096
4.811111,0.028754
4.813889,-0.038695
4.816667,-0.007986
4.819444,0.068827
4.822222,0.040419
4.825000,0.092901
4.827778,0.055391
4.830556,0.041757
4.833333,-0.008608
4.836111,0.042942
4.838889,0.042953
4.841667,0.029752
4.844444,0.112732
4.847222,0.057665
4.850000,0.024539
4.852778,0.012206
4.855556,-0.023655
4.858333,0.041367
4.861111,0.032689
4.863889,0.066480
4.866667,0.060914
4.869444,0.028255
4.872222,0.036616
4.875000,0.003881
4.877778,0.053412
4.880556,0.110199
4.883333,0.045101
4.886111,0.081052
4.888889,0.013002
4.891667,-0.017910
4.894444,-0.038494
4.897222,-0.041139
4.900000,-0.003449
4.902778,0.061309
4.905556,0.039302
4.908333,0.076053
4.911111,-0.019618
4.913889,0.061543
4.916667,-0.033378
4.919444,0.016167
4.922222,0.015192
4.925000,0.122318
4.927778,0.086082
4.930556,0.019804
4.933333,-0.064905
4.936111,-0.022644
4.938889,-0.033503
4.941667,0.085331
4.944444,0.089195
4.947222,0.056063
4.950000,-0.058975
4.952778,-0.054471
4.955556,-0.016056
4.958333,0.023155
4.961111,0.061362
4.963889,0.009427
4.966667,0.061766
4.969444,0.047782
4.972222,-0.074039
4.975000,-0.043171
4.977778,-0.017643
4.980556,0.005156
4.983333,-0.007552
4.986111,0.041140
4.988889,0.010423
4.991667,-0.027086
4.994444,-0.064574
4.997222,-0.050807
5.000000,-0.000611
5.002778,0.051625
5.005556,0.039723
5.008333,0.012021
5.011111,-0.015160
5.013889,-0.105372
5.016667,-0.029417
5.019444,-0.008469
5.022222,0.034610
5.025000,0.081615
5.027778,-0.021597
5.030556,-0.060377
5.033333,-0.024205
5.036111,-0.032204
5.038889,0.007907
5.041667,0.036770
5.044444,0.101354
5.047222,0.105796
5.050000,0.062070
5.052778,0.010049
5.055556,-0.047239
5.058333,0.072597
5.061111,0.137558
5.063889,0.159150
5.066667,0.118223
5.069444,0.137867
5.072222,0.109212
5.075000,0.117523
5.077778,0.066007
5.080556,0.128277
5.083333,0.192254
5.086111,0.173543
5.088889,0.104907
5.091667,0.103543
5.094444,0.077449
5.097222,0.065544
5.100000,0.098564
5.102778,0.112415
5.105556,0.164677
5.108333,0.057652
5.111111,0.012719
5.113889,-0.012793
5.116667,0.001190
5.119444,-0.054176
5.122222,-0.029524
5.125000,-0.057097
5.127778,-0.035309
5.130556,-0.127779
5.133333,-0.147973
5.136111,-0.115337
5.138889,-0.105417
5.141667,-0.002364
5.144444,0.059258
5.147222,0.154163
5.150000,0.215220
5.152778,0.277414
5.155556,0.441755
5.158333,0.669552
5.161111,0.841708
5.163889,0.921858
5.166667,1.016053
5.169444,0.889271
5.172222,0.815102
5.175000,0.630478
5.177778,0.451737
5.180556,0.319310
5.183333,0.195183
5.186111,0.105252
5.188889,-0.050855
5.191667,-0.150037
5.194444,-0.217174
5.197222,-0.301892
5.200000,-0.309510
5.202778,-0.323125
5.205556,-0.330730
5.208333,-0.386117
5.211111,-0.344804
5.213889,-0.321949
5.216667,-0.298670
5.219444,-0.317870
5.222222,-0.166600
5.225000,-0.089620
5.227778,-0.130201
5.230556,-0.126720
5.233333,-0.203490
5.236111,-0.123679
5.238889,-0.123266
5.241667,-0.036430
5.244444,-0.060645
5.247222,-0.005638
5.250000,-0.027539
5.252778,-0.118533
5.255556,-0.138669
5.258333,-0.143539
5.261111,-0.043137
5.263889,-0.020888
5.266667,-0.051589
5.269444,-0.023754
5.272222,-0.089046
5.275000,-0.122757
5.277778,-0.086025
5.280556,0.007136
5.283333,0.031601
5.286111,0.017534
5.288889,0.014708
5.291667,-0.075864
5.294444,-0.059032
5.297222,-0.039034
5.300000,-0.013306
5.302778,0.058410
5.305556,0.039424
5.308333,0.060719
5.311111,0.026956
5.313889,-0.099705
5.316667,0.034679
5.319444,-0.050220
5.322222,0.071268
5.325000,0.146142
5.327778,0.095777
5.330556,0.028210
5.333333,0.012381
5.336111,0.079768
5.338889,0.028428
5.341667,0.168991
5.344444,0.164315
5.347222,0.125465
5.350000,0.111195
5.352778,0.065114
5.355556,0.115367
5.358333,0.139676
5.361111,0.111667
5.363889,0.183772
5.366667,0.168344
5.369444,0.199732
5.372222,0.080153
5.375000,0.150710
5.377778,0.118463
5.380556,0.123680
5.383333,0.170338
5.386111,0.167054
5.388889,0.119031
5.391667,0.113383
5.394444,0.044183
5.397222,0.020667
5.400000,0.106552
5.402778,0.095213
5.405556,0.130271
5.408333,0.093524
5.411111,0.044421
5.413889,0.092283
5.416667,0.028987
5.419444,0.060468
5.422222,0.031724
5.425000,0.074295
5.427778,0.073552
5.430556,-0.013373
5.433333,0.001179
5.436111,-0.074490
5.438889,-0.025597
5.441667,-0.000748
5.444444,0.037991
5.447222,-0.004828
5.450000,-0.039480
5.452778,-0.083862
5.455556,-0.116541
5.458333,-0.062170
5.461111,-0.033579
5.463889,-0.019267
5.466667,-0.038622
5.469444,-0.041504
5.472222,-0.118035
5.475000,-0.142432
5.477778,-0.116324
5.480556,-0.031535
5.483333,-0.091524
5.486111,-0.027758
5.488889,-0.140496
5.491667,-0.122002
5.494444,-0.107998
5.497222,-0.131930
5.500000,-0.105250
5.502778,-0.090779
5.505556,-0.063828
5.508333,-0.098143
5.511111,-0.157704
5.513889,-0.174022
5.516667,-0.156896
5.519444,-0.152349
5.522222,-0.113711
5.525000,-0.113401
5.527778,-0.079592
5.530556,-0.116572
5.533333,-0.161339
5.536111,-0.143707
5.538889,-0.140788
5.541667,-0.090169
5.544444,-0.069147
5.547222,-0.092490
5.550000,-0.144489
5.552778,-0.100937
5.555556,-0.192334
5.558333,-0.174970
5.561111,-0.100316
5.563889,-0.076327
5.566667,-0.130127
5.569444,-0.089330
5.572222,-0.167056
5.575000,-0.215809
5.577778,-0.129339
5.580556,-0.105786
5.583333,-0.128244
5.586111,-0.033672
5.588889,-0.097465
5.591667,-0.159989
5.594444,-0.136565
5.597222,-0.168898
5.600000,-0.136557
5.602778,-0.117556
5.605556,-0.069683
5.608333,-0.097408
5.611111,-0.153689
5.613889,-0.208031
5.616667,-0.177064
5.619444,-0.148748
5.622222,-0.146143
5.625000,-0.132735
5.627778,-0.089786
5.630556,-0.225914
5.633333,-0.176605
5.636111,-0.201081
5.638889,-0.117890
5.641667,-0.130120
5.644444,-0.071567
5.647222,-0.114469
5.650000,-0.137720
5.652778,-0.157593
5.655556,-0.204773
5.658333,-0.137016
5.661111,-0.154875
5.663889,-0.086591
5.666667,-0.071678
5.669444,-0.114416
5.672222,-0.117782
5.675000,-0.216272
5.677778,-0.217112
5.680556,-0.164971
5.683333,-0.080930
5.686111,-0.082339
5.688889,-0.124306
5.691667,-0.203372
5.694444,-0.171123
5.697222,-0.220134
5.700000,-0.110519
5.702778,-0.021455
5.705556,-0.085436
5.708333,-0.103362
5.711111,-0.177924
5.713889,-0.247505
5.716667,-0.207770
5.719444,-0.188026
5.722222,-0.157993
5.725000,-0.045213
5.727778,-0.106715
5.730556,-0.144486
5.733333,-0.199915
5.736111,-0.199659
5.738889,-0.135794
5.741667,-0.123737
5.744444,-0.082738
5.747222,-0.115606
5.750000,-0.158418
5.752778,-0.228784
5.755556,-0.256964
5.758333,-0.181350
5.761111,-0.129816
5.763889,-0.140316
5.766667,-0.106550
5.769444,-0.138619
5.772222,-0.245826
5.775000,-0.226548
5.777778,-0.169100
5.780556,-0.128964
5.783333,-0.140643
5.786111,-0.097668
5.788889,-0.101701
5.791667,-0.151225
5.794444,-0.201696
5.797222,-0.201994
5.800000,-0.168584
5.802778,-0.097414
5.805556,-0.094701
5.808333,-0.105951
5.811111,-0.163013
5.813889,-0.172321
5.816667,-0.190389
5.819444,-0.135090
5.822222,-0.091703
5.825000,-0.124117
5.827778,-0.172097
5.830556,-0.112376
5.833333,-0.185022
5.836111,-0.247582
5.838889,-0.187321
5.841667,-0.100159
5.844444,-0.106806
5.847222,-0.123842
5.850000,-0.103615
5.852778,-0.213893
5.855556,-0.215493
5.858333,-0.158633
5.861111,-0.108281
5.863889,-0.071721
5.866667,-0.058765
5.869444,-0.109817
5.872222,-0.136166
5.875000,-0.169911
5.877778,-0.134997
5.880556,-0.084649
5.883333,-0.037913
5.886111,-0.008024
5.888889,-0.034512
5.891667,-0.081788
5.894444,-0.121474
5.897222,-0.074337
5.900000,-0.029547
5.902778,0.023930
5.905556,0.102717
5.908333,0.002677
5.911111,-0.006482
5.913889,-0.014128
5.916667,-0.038514
5.919444,0.062502
5.922222,0.019240
5.925000,0.053850
5.927778,-0.003562
5.930556,-0.038173
5.933333,-0.063092
5.936111,-0.058037
5.938889,-0.053832
5.941667,0.005981
5.944444,-0.021704
5.947222,-0.052403
5.950000,-0.014424
5.952778,-0.139774
5.955556,-0.204963
5.958333,-0.202632
5.961111,-0.189499
5.963889,-0.119405
5.966667,-0.168749
5.969444,-0.182717
5.972222,-0.209181
5.975000,-0.167461
5.977778,-0.142681
5.980556,-0.031055
5.983333,0.148801
5.986111,0.300267
5.988889,0.422889
5.991667,0.514694
5.994444,0.685610
5.997222,0.758870
6.000000,0.841131
6.002778,0.827796
6.005556,0.798820
6.008333,0.600433
6.011111,0.383902
6.013889,0.205017
6.016667,0.108909
6.019444,-0.111363
6.022222,-0.135151
6.025000,-0.187885
6.027778,-0.273759
6.030556,-0.373012
6.033333,-0.427563
6.036111,-0.492306
6.038889,-0.437291
6.041667,-0.410894
6.044444,-0.366079
6.047222,-0.354820
6.050000,-0.358129
6.052778,-0.386967
6.055556,-0.282113
6.058333,-0.275234
6.061111,-0.261353
6.063889,-0.177068
6.066667,-0.180723
6.069444,-0.146305
6.072222,-0.179814
6.075000,-0.200185
6.077778,-0.102522
6.080556,-0.101682
6.083333,-0.058742
6.086111,-0.102178
6.088889,-0.131631
6.091667,-0.140129
6.094444,-0.157608
6.097222,-0.204665
6.100000,-0.112952
6.102778,-0.065418
6.105556,-0.057668
6.108333,-0.095863
6.111111,-0.125439
6.113889,-0.139806
6.116667,-0.123121
6.119444,-0.067767
6.122222,-0.007002
6.125000,-0.024388
6.127778,-0.040749
6.130556,-0.048063
6.133333,-0.070462
6.136111,-0.098157
6.138889,-0.023897
6.141667,0.031795
6.144444,0.073562
6.147222,0.085607
6.150000,-0.023471
6.152778,-0.026652
6.155556,-0.028857
6.158333,0.000968
6.161111,0.035402
6.163889,0.049015
6.166667,0.101391
6.169444,0.049490
6.172222,0.042626
6.175000,0.006410
6.177778,0.022809
6.180556,0.110958
6.183333,0.149930
6.186111,0.172812
6.188889,0.196916
6.191667,0.102744
6.194444,0.089279
6.197222,0.057198
6.200000,0.092368
6.202778,0.219174
6.205556,0.156581
6.208333,0.129621
6.211111,0.117791
6.213889,0.085737
6.216667,0.063659
6.219444,0.114075
6.222222,0.198088
6.225000,0.151365
6.227778,0.111707
6.230556,0.136203
6.233333,0.082747
6.236111,0.039843
6.238889,0.034587
6.241667,0.095127
6.244444,0.133037
6.247222,0.151400
6.250000,0.039499
6.252778,0.022063
6.255556,0.026112
6.258333,-0.049192
6.261111,0.087510
6.263889,0.043110
6.266667,0.077163
6.269444,0.032431
6.272222,0.009376
6.275000,-0.031646
6.277778,-0.108535
6.280556,-0.026565
6.283333,0.029414
6.286111,0.017087
6.288889,0.001697
6.291667,-0.036398
6.294444,-0.071068
6.297222,-0.089467
6.300000,-0.104436
6.302778,-0.028376
6.305556,0.005085
6.308333,-0.067666
6.311111,-0.061106
6.313889,-0.085363
6.316667,-0.107523
6.319444,-0.170746
6.322222,-0.078216
6.325000,0.032955
6.327778,-0.059278
6.330556,-0.144407
6.333333,-0.083427
6.336111,-0.124570
6.338889,-0.062576
6.341667,-0.045801
6.344444,-0.016461
6.347222,-0.030491
6.350000,-0.058872
6.352778,-0.049789
6.355556,-0.099843
6.358333,-0.151986
6.361111,-0.048848
6.363889,0.002171
6.366667,0.000670
6.369444,-0.082434
6.372222,-0.075073
6.375000,-0.099576
6.377778,-0.031866
6.380556,-0.090186
6.383333,-0.047730
6.386111,-0.037429
6.388889,-0.072237
6.391667,-0.125718
6.394444,-0.205511
6.397222,-0.124094
6.400000,-0.061021
6.402778,-0.047938
6.405556,0.036524
6.408333,-0.044704
6.411111,-0.047797
6.413889,-0.107886
6.416667,-0.086565
6.419444,-0.067669
6.422222,0.006534
6.425000,-0.014292
6.427778,-0.018245
6.430556,-0.062256
6.433333,-0.115807
6.436111,-0.097983
6.438889,-0.012506
6.441667,-0.044834
6.444444,0.000817
6.447222,0.015746
6.450000,-0.025362
6.452778,-0.096800
6.455556,-0.178868
6.458333,-0.066900
6.461111,-0.106159
6.463889,0.035135
6.466667,-0.006833
6.469444,-0.015815
6.472222,-0.112958
6.475000,-0.149596
6.477778,-0.076602
6.480556,-0.043875
6.483333,-0.022256
6.486111,-0.000547
6.488889,0.050794
6.491667,-0.048552
6.494444,-0.065599
6.497222,-0.060083
6.500000,-0.001969
6.502778,-0.013005
6.505556,-0.057259
6.508333,-0.024764
6.511111,-0.036104
6.513889,-0.118681
6.516667,-0.090441
6.519444,-0.070529
6.522222,0.036862
6.525000,0.032903
6.527778,0.012863
6.530556,-0.028098
6.533333,-0.081722
6.536111,-0.077600
6.538889,-0.088437
6.541667,-0.075610
6.544444,0.019490
6.547222,0.014534
6.550000,0.003556
6.552778,-0.023117
6.555556,-0.033327
6.558333,-0.085359
6.561111,-0.023116
6.563889,0.032516
6.566667,0.091151
6.569444,0.025750
6.572222,-0.025120
6.575000,-0.087423
6.577778,-0.083651
6.580556,0.008109
6.583333,-0.013184
6.586111,0.017142
6.588889,-0.008255
6.591667,0.001652
6.594444,-0.080239
6.597222,-0.131059
6.600000,-0.003667
6.602778,-0.000689
6.605556,0.033279
6.608333,0.005939
6.611111,-0.040991
6.613889,-0.038172
6.616667,-0.103403
6.619444,-0.037527
6.622222,0.040109
6.625000,0.019809
6.627778,-0.027111
6.630556,0.001172
6.633333,-0.019027
6.636111,-0.056969
6.638889,-0.083777
6.641667,0.039113
6.644444,-0.006838
6.647222,0.042070
6.650000,-0.031336
6.652778,-0.077024
6.655556,-0.065639
6.658333,-0.032855
6.661111,-0.003796
6.663889,0.063860
6.666667,0.030499
6.669444,0.039708
6.672222,-0.020947
6.675000,-0.066904
6.677778,-0.052665
6.680556,-0.033649
6.683333,0.061020
6.686111,0.047571
6.688889,-0.040223
6.691667,-0.024146
6.694444,-0.055722
6.697222,0.033758
6.700000,-0.021364
6.702778,0.030460
6.705556,0.124414
6.708333,0.114875
6.711111,0.017836
6.713889,0.000235
6.716667,0.050969
6.719444,0.007477
6.722222,0.072894
6.725000,0.149018
6.727778,0.196922
6.730556,0.107115
6.733333,0.098637
6.736111,0.135158
6.738889,0.202356
6.741667,0.170724
6.744444,0.216989
6.747222,0.264730
6.750000,0.127799
6.752778,0.165843
6.755556,0.091567
6.758333,0.145757
6.761111,0.172277
6.763889,0.174123
6.766667,0.161999
6.769444,0.156606
6.772222,0.128112
6.775000,0.066617
6.777778,0.079777
6.780556,0.123589
6.783333,0.097718
6.786111,0.135578
6.788889,0.087832
6.791667,0.077177
6.794444,-0.057393
6.797222,-0.064508
6.800000,0.004541
6.802778,0.050809
6.805556,0.041764
6.808333,0.057764
6.811111,0.098806
6.813889,0.106073
6.816667,0.229046
6.819444,0.415685
6.822222,0.644782
6.825000,0.783314
6.827778,0.879386
6.830556,0.941812
6.833333,0.964705
6.836111,0.920945
6.838889,0.878814
6.841667,0.736264
6.844444,0.601998
6.847222,0.421133
6.850000,0.246558
6.852778,0.142382
6.855556,0.018357
6.858333,-0.050578
6.861111,-0.083311
6.863889,-0.103773
6.866667,-0.127453
6.869444,-0.187492
6.872222,-0.294052
6.875000,-0.290366
6.877778,-0.326431
6.880556,-0.196496
6.883333,-0.112818
6.886111,-0.101238
6.888889,-0.026867
6.891667,-0.110266
6.894444,-0.066469
6.897222,-0.034147
6.900000,0.024773
6.902778,0.079329
6.905556,0.108765
6.908333,0.115001
6.911111,0.094573
6.913889,0.027518
6.916667,0.059081
6.919444,0.051124
6.922222,0.138786
6.925000,0.113661
6.927778,0.154379
6.930556,0.150360
6.933333,0.049202
6.936111,-0.012887
6.938889,0.070321
6.941667,0.170109
6.944444,0.178584
6.947222,0.163442
6.950000,0.153184
6.952778,0.104744
6.955556,0.121733
6.958333,0.143296
6.961111,0.210076
6.963889,0.212017
6.966667,0.231996
6.969444,0.168585
6.972222,0.126805
6.975000,0.186335
6.977778,0.167865
6.980556,0.234947
6.983333,0.257910
6.986111,0.249202
6.988889,0.246255
6.991667,0.255963
6.994444,0.214357
6.997222,0.166294
7.000000,0.258373
7.002778,0.365321
7.005556,0.324868
7.008333,0.261233
7.011111,0.337798
7.013889,0.279051
7.016667,0.267159
7.019444,0.299219
7.022222,0.389575
7.025000,0.364017
7.027778,0.401524
7.030556,0.346493
7.033333,0.306205
7.036111,0.302060
7.038889,0.324083
7.041667,0.403786
7.044444,0.370908
7.047222,0.336712
7.050000,0.364182
7.052778,0.324322
7.055556,0.306075
7.058333,0.324674
7.061111,0.340809
7.063889,0.399206
7.066667,0.365241
7.069444,0.311571
7.072222,0.269743
7.075000,0.315190
7.077778,0.213369
7.080556,0.313933
7.083333,0.275656
7.086111,0.318767
7.088889,0.271311
7.091667,0.171801
7.094444,0.213912
7.097222,0.193955
7.100000,0.172953
7.102778,0.291827
7.105556,0.313215
7.108333,0.283426
7.111111,0.200432
7.113889,0.154473
7.116667,0.190223
7.119444,0.229382
7.122222,0.247976
7.125000,0.198153
7.127778,0.209487
7.130556,0.171059
7.133333,0.064555
7.136111,0.125166
7.138889,0.205412
7.141667,0.195096
7.144444,0.241226
7.147222,0.188755
7.150000,0.140235
7.152778,0.113303
7.155556,0.064442
7.158333,0.082472
7.161111,0.189925
7.163889,0.221646
7.166667,0.145905
7.169444,0.169080
7.172222,0.095790
7.175000,0.090058
7.177778,0.110988
7.180556,0.167409
7.183333,0.174361
7.186111,0.217643
7.188889,0.154597
7.191667,0.121874
7.194444,0.053910
7.197222,0.154662
7.200000,0.142405
7.202778,0.188152
7.205556,0.129640
7.208333,0.129181
7.211111,0.149142
7.213889,0.090995
7.216667,0.028944
7.219444,0.152425
7.222222,0.146098
7.225000,0.222935
7.227778,0.160432
7.230556,0.128724
7.233333,0.123674
7.236111,0.058043
7.238889,0.085414
7.241667,0.151754
7.244444,0.207053
7.247222,0.131722
7.250000,0.083652
7.252778,0.120449
7.255556,0.067054
7.258333,0.097958
7.261111,0.096461
7.263889,0.162016
7.266667,0.178808
7.269444,0.172658
7.272222,0.081115
7.275000,0.136436
7.277778,0.084359
7.280556,0.125542
7.283333,0.227087
7.286111,0.191303
7.288889,0.138821
7.291667,0.108929
7.294444,0.130233
7.297222,0.144860
7.300000,0.114963
7.302778,0.176783
7.305556,0.191982
7.308333,0.135730
7.311111,0.121821
7.313889,0.094039
7.316667,0.132037
7.319444,0.168937
7.322222,0.163920
7.325000,0.185494
7.327778,0.194233
7.330556,0.116176
7.333333,0.117016
7.336111,0.093277
7.338889,0.096953
7.341667,0.139664
7.344444,0.236250
7.347222,0.177433
7.350000,0.193255
7.352778,0.090550
7.355556,0.103970
7.358333,0.191464
7.361111,0.130268
7.363889,0.135140
7.366667,0.227186
7.369444,0.129359
7.372222,0.112910
7.375000,0.078278
7.377778,0.121942
7.380556,0.126381
7.383333,0.184291
7.386111,0.207036
7.388889,0.133574
7.391667,0.100881
7.394444,0.087379
7.397222,0.066027
7.400000,0.134666
7.402778,0.189354
7.405556,0.184883
7.408333,0.164625
7.411111,0.130201
7.413889,0.081371
7.416667,0.125584
7.419444,0.182671
7.422222,0.166599
7.425000,0.213059
7.427778,0.173563
7.430556,0.150999
7.433333,0.152489
7.436111,0.117189
7.438889,0.078702
7.441667,0.187714
7.444444,0.235405
7.447222,0.180913
7.450000,0.179203
7.452778,0.090400
7.455556,0.055667
7.458333,0.128773
7.461111,0.114004
7.463889,0.189444
7.466667,0.231611
7.469444,0.101141
7.472222,0.079270
7.475000,0.068873
7.477778,0.115829
7.480556,0.147610
7.483333,0.235201
7.486111,0.225564
7.488889,0.181926
7.491667,0.129350
7.494444,0.112548
7.497222,0.085836
7.500000,0.176296
7.502778,0.155774
7.505556,0.225480
7.508333,0.212232
7.511111,0.141503
7.513889,0.100844
7.516667,0.122919
7.519444,0.061098
7.522222,0.198636
7.525000,0.206292
7.527778,0.193114
7.530556,0.178420
7.533333,0.124460
7.536111,0.093658
7.538889,0.159143
7.541667,0.213967
7.544444,0.246897
7.547222,0.245414
7.550000,0.242182
7.552778,0.149449
7.555556,0.186120
7.558333,0.253772
7.561111,0.215114
7.563889,0.312136
7.566667,0.294668
7.569444,0.274827
7.572222,0.225222
7.575000,0.235311
7.577778,0.317831
7.580556,0.268101
7.583333,0.306366
7.586111,0.305032
7.588889,0.363165
7.591667,0.250790
7.594444,0.233512
7.597222,0.225645
7.600000,0.239094
7.602778,0.289194
7.605556,0.370765
7.608333,0.303737
7.611111,0.182659
7.613889,0.184816
7.616667,0.128985
7.619444,0.117156
7.622222,0.220660
7.625000,0.219709
7.627778,0.176542
7.630556,0.073697
7.633333,0.041151
7.636111,0.070469
7.638889,0.109286
7.641667,0.163153
7.644444,0.204478
7.647222,0.322771
7.650000,0.419229
7.652778,0.448670
7.655556,0.652930
7.658333,0.835661
7.661111,1.040404
7.663889,1.178430
7.666667,1.164562
7.669444,1.062813
7.672222,0.946730
7.675000,0.816929
7.677778,0.617767
7.680556,0.485239
7.683333,0.338756
7.686111,0.329889
7.688889,0.177918
7.691667,0.059330
7.694444,-0.020508
7.697222,-0.073496
7.700000,-0.103669
7.702778,-0.097083
7.705556,-0.116066
7.708333,-0.056239
7.711111,-0.153614
7.713889,-0.193306
7.716667,-0.130229
7.719444,-0.101772
7.722222,0.054832
7.725000,0.046322
7.727778,0.097363
7.730556,0.101428
7.733333,0.067881
7.736111,0.071117
7.738889,0.109298
7.741667,0.156583
7.744444,0.169943
7.747222,0.165995
7.750000,0.187863
7.752778,0.103796
7.755556,0.074290
7.758333,0.108407
7.761111,0.200945
7.763889,0.220224
7.766667,0.215460
7.769444,0.158946
7.772222,0.145972
7.775000,0.094822
7.777778,0.127728
7.780556,0.209279
7.783333,0.245209
7.786111,0.197718
7.788889,0.176477
7.791667,0.168495
7.794444,0.198308
7.797222,0.105858
7.800000,0.216162
7.802778,0.211328
7.805556,0.251304
7.808333,0.242216
7.811111,0.205732
7.813889,0.179960
7.816667,0.207561
7.819444,0.233731
7.822222,0.254655
7.825000,0.347751
7.827778,0.337043
7.830556,0.306835
7.833333,0.208491
7.836111,0.267620
7.838889,0.316209
7.841667,0.314201
7.844444,0.376412
7.847222,0.368066
7.850000,0.394412
7.852778,0.363962
7.855556,0.250176
7.858333,0.403372
7.861111,0.346755
7.863889,0.436384
7.866667,0.434545
7.869444,0.342348
7.872222,0.346843
7.875000,0.310835
7.877778,0.347654
7.880556,0.377099
7.883333,0.438260
7.886111,0.405145
7.888889,0.364075
7.891667,0.355316
7.894444,0.310379
7.897222,0.320022
7.900000,0.310032
7.902778,0.330000
7.905556,0.347890
7.908333,0.314279
7.911111,0.306264
7.913889,0.273663
7.916667,0.234773
7.919444,0.308164
7.922222,0.338191
7.925000,0.313322
7.927778,0.254521
7.930556,0.276684
7.933333,0.184134
7.936111,0.177365
7.938889,0.184752
7.941667,0.202036
7.944444,0.200844
7.947222,0.245153
7.950000,0.156858
7.952778,0.226649
7.955556,0.084471
7.958333,0.097034
7.961111,0.185961
7.963889,0.240563
7.966667,0.187420
7.969444,0.162850
7.972222,0.044704
7.975000,0.057295
7.977778,0.059053
7.980556,0.071312
7.983333,0.162655
7.986111,0.092179
7.988889,0.086803
7.991667,0.065379
7.994444,0.029667
7.997222,0.074993
8.000000,0.108319
8.002778,0.162192
8.005556,0.166973
8.008333,0.152617
8.011111,0.074597
8.013889,0.052358
8.016667,0.060872
8.019444,0.083081
8.022222,0.106508
8.025000,0.125157
8.027778,0.091656
8.030556,0.086980
8.033333,0.035914
8.036111,0.014221
8.038889,0.043236
8.041667,0.068029
8.044444,0.157112
8.047222,0.118355
8.050000,0.051019
8.052778,0.062083
8.055556,0.009315
8.058333,0.007425
8.061111,0.121618
8.063889,0.104021
8.066667,0.103458
8.069444,0.081622
8.072222,0.073125
8.075000,0.020874
8.077778,0.001449
8.080556,0.093850
8.083333,0.096893
8.086111,0.171054
8.088889,0.083789
8.091667,-0.026039
8.094444,0.026782
8.097222,0.084625
8.100000,0.111155
8.102778,0.156394
8.105556,0.081096
8.108333,0.114096
8.111111,0.022253
8.113889,0.020039
8.116667,-0.021916
8.119444,0.030836
8.122222,0.069981
8.125000,0.134360
8.127778,0.112838
8.130556,0.055571
8.133333,-0.028595
8.136111,-0.001846
8.138889,0.014271
8.141667,0.104112
8.144444,0.136872
8.147222,0.121543
8.150000,0.028154
8.152778,-0.070417
8.155556,-0.052919
8.158333,0.066236
8.161111,0.052907
8.163889,0.071562
8.166667,0.138934
8.169444,0.092242
8.172222,0.013450
8.175000,-0.014696
8.177778,0.007252
8.180556,0.058100
8.183333,0.133151
8.186111,0.100753
8.188889,0.079220
8.191667,0.049659
8.194444,-0.045508
8.197222,0.022407
8.200000,0.028466
8.202778,-0.000638
8.205556,0.021175
8.208333,0.029473
8.211111,0.033088
8.213889,-0.010083
8.216667,-0.005049
8.219444,0.081800
8.222222,0.025253
8.225000,0.079595
8.227778,0.070921
8.230556,-0.001892
8.233333,-0.014344
8.236111,-0.067648
8.238889,0.051759
8.241667,0.030341
8.244444,0.135198
8.247222,0.061569
8.250000,0.054307
8.252778,-0.017212
8.255556,-0.028250
8.258333,-0.021386
8.261111,0.041032
8.263889,0.076104
8.266667,0.038573
8.269444,0.022952
8.272222,-0.033202
8.275000,0.035450
8.277778,-0.019152
8.280556,0.069937
8.283333,0.051549
8.286111,0.068097
8.288889,-0.009988
8.291667,-0.026643
8.294444,-0.031939
8.297222,0.019480
8.300000,0.016078
8.302778,0.088448
8.305556,0.076313
8.308333,0.080888
8.311111,-0.012591
8.313889,0.030219
8.316667,-0.053152
8.319444,-0.027750
8.322222,-0.001021
8.325000,0.122287
8.327778,0.058294
8.330556,-0.017921
8.333333,-0.005251
8.336111,-0.026305
8.338889,0.041499
8.341667,-0.022125
8.344444,0.040449
8.347222,0.023666
8.350000,-0.059637
8.352778,-0.006262
8.355556,-0.056073
8.358333,-0.000018
8.361111,0.092742
8.363889,0.043908
8.366667,0.041548
8.369444,0.027236
8.372222,0.017381
8.375000,-0.041367
8.377778,-0.018885
8.380556,0.079912
8.383333,0.102211
8.386111,0.041819
8.388889,0.045571
8.391667,0.094557
8.394444,0.046623
8.397222,0.031660
8.400000,0.096198
8.402778,0.147670
8.405556,0.186848
8.408333,0.105011
8.411111,0.082100
8.413889,0.087592
8.416667,0.080239
8.419444,0.133310
8.422222,0.116580
8.425000,0.176818
8.427778,0.174216
8.430556,0.107130
8.433333,0.052849
8.436111,0.032013
8.438889,0.028941
8.441667,0.082513
8.444444,0.134471
8.447222,0.068594
8.450000,-0.008571
8.452778,-0.053642
8.455556,-0.065569
8.458333,-0.082171
8.461111,-0.036769
8.463889,-0.022878
8.466667,-0.023164
8.469444,-0.036804
8.472222,-0.071334
8.475000,-0.112330
8.477778,-0.040248
8.480556,0.102107
8.483333,0.230732
8.486111,0.349310
8.488889,0.499905
8.491667,0.624005
8.494444,0.743410
8.497222,0.869006
8.500000,0.988437
8.502778,0.957406
8.505556,0.928260
8.508333,0.679870
8.511111,0.449377
8.513889,0.259050
8.516667,0.122546
8.519444,0.042287
8.522222,0.037608
8.525000,-0.107464
8.527778,-0.136181
8.530556,-0.249186
8.533333,-0.381459
8.536111,-0.349460
8.538889,-0.327109
8.541667,-0.356981
8.544444,-0.300625
8.547222,-0.342690
8.550000,-0.335893
8.552778,-0.267266
8.555556,-0.283718
8.558333,-0.240548
8.561111,-0.124652
8.563889,-0.089768
8.566667,-0.070775
8.569444,-0.053834
8.572222,-0.141249
8.575000,-0.144580
8.577778,-0.090566
8.580556,-0.022461
8.583333,0.022172
8.586111,-0.029703
8.588889,-0.010099
8.591667,-0.102382
8.594444,-0.046699
8.597222,-0.122740
8.600000,-0.008506
8.602778,-0.027419
8.605556,0.066231
8.608333,0.002254
8.611111,-0.084830
8.613889,-0.096338
8.616667,-0.049654
8.619444,-0.002653
8.622222,0.009051
8.625000,0.035303
8.627778,0.044127
8.630556,-0.009880
8.633333,-0.081317
8.636111,-0.064329
8.638889,0.003550
8.641667,0.081889
8.644444,0.125221
8.647222,0.096483
8.650000,0.050890
8.652778,0.034053
8.655556,-0.011633
8.658333,0.035785
8.661111,0.065533
8.663889,0.090401
8.666667,0.141802
8.669444,0.110194
8.672222,0.091665
8.675000,0.076505
8.677778,0.091867
8.680556,0.148316
8.683333,0.170709
8.686111,0.193305
8.688889,0.133937
8.691667,0.128795
8.694444,0.116953
8.697222,0.090503
8.700000,0.152493
8.702778,0.171838
8.705556,0.186241
8.708333,0.143835
8.711111,0.172474
8.713889,0.134841
8.716667,0.120177
8.719444,0.194602
8.722222,0.166631
8.725000,0.276491
8.727778,0.155575
8.730556,0.123354
8.733333,0.062708
8.736111,0.075181
8.738889,0.111563
8.741667,0.117380
8.744444,0.190201
8.747222,0.124715
8.750000,0.078711
8.752778,-0.003782
8.755556,0.016192
8.758333,0.014893
8.761111,0.033807
8.763889,0.049736
8.766667,0.140693
8.769444,0.009353
8.772222,-0.075754
8.775000,-0.079113
8.777778,-0.049865
8.780556,0.001167
8.783333,0.028592
8.786111,0.028807
8.788889,-0.047514
8.791667,-0.066510
8.794444,-0.133354
8.797222,-0.120485
8.800000,-0.096541
8.802778,-0.071432
8.805556,0.002346
8.808333,-0.037572
8.811111,-0.075126
8.813889,-0.136920
8.816667,-0.114612
8.819444,-0.159360
8.822222,-0.042770
8.825000,-0.048207
8.827778,-0.055058
8.830556,-0.105570
8.833333,-0.183281
8.836111,-0.204193
8.838889,-0.152463
8.841667,-0.073634
8.844444,-0.047081
8.847222,-0.121078
8.850000,-0.148979
8.852778,-0.180649
8.855556,-0.181622
8.858333,-0.188455
8.861111,-0.149014
8.863889,-0.101919
8.866667,-0.079099
8.869444,-0.152413
8.872222,-0.161936
8.875000,-0.145173
8.877778,-0.198696
8.880556,-0.125557
8.883333,-0.054520
8.886111,-0.094623
8.888889,-0.129644
8.891667,-0.120089
8.894444,-0.188863
8.897222,-0.136034
8.900000,-0.118416
8.902778,-0.103676
8.905556,-0.068460
8.908333,-0.097867
8.911111,-0.119338
8.913889,-0.196674
8.916667,-0.175674
8.919444,-0.144500
8.922222,-0.081066
8.925000,-0.115439
8.927778,-0.072383
8.930556,-0.130067
8.933333,-0.218523
8.936111,-0.146786
8.938889,-0.086458
8.941667,-0.081651
8.944444,-0.044978
8.947222,-0.096483
8.950000,-0.187506
8.952778,-0.231597
8.955556,-0.179866
8.958333,-0.181340
8.961111,-0.149216
8.963889,-0.094073
8.966667,-0.077697
8.969444,-0.174654
8.972222,-0.185643
8.975000,-0.145020
8.977778,-0.204990
8.980556,-0.106089
8.983333,-0.112373
8.986111,-0.078038
8.988889,-0.091636
8.991667,-0.144674
8.994444,-0.164131
8.997222,-0.215264
9.000000,-0.109249
9.002778,-0.130178
9.005556,-0.086109
9.008333,-0.110622
9.011111,-0.146145
9.013889,-0.180699
9.016667,-0.212660
9.019444,-0.193440
9.022222,-0.086165
9.025000,-0.089109
9.027778,-0.078268
9.030556,-0.155115
9.033333,-0.230744
9.036111,-0.163482
9.038889,-0.173882
9.041667,-0.110595
9.044444,-0.116220
9.047222,-0.058583
9.050000,-0.172684
9.052778,-0.194982
9.055556,-0.192739
9.058333,-0.204649
9.061111,-0.120024
9.063889,-0.051852
9.066667,-0.118756
9.069444,-0.126952
9.072222,-0.262252
9.075000,-0.198934
9.077778,-0.189430
9.080556,-0.163901
9.083333,-0.072408
9.086111,-0.111077
9.088889,-0.136614
9.091667,-0.184819
9.094444,-0.255357
9.097222,-0.220979
9.100000,-0.119984
9.102778,-0.173910
9.105556,-0.122755
9.108333,-0.136086
9.111111,-0.113971
9.113889,-0.173185
9.116667,-0.209351
9.119444,-0.118953
9.122222,-0.139550
9.125000,-0.069265
9.127778,-0.158224
9.130556,-0.126137
9.133333,-0.205189
9.136111,-0.227591
9.138889,-0.173410
9.141667,-0.116513
9.144444,-0.115470
9.147222,-0.094978
9.150000,-0.167416
9.152778,-0.169640
9.155556,-0.185941
9.158333,-0.176809
9.161111,-0.146132
9.163889,-0.098467
9.166667,-0.089611
9.169444,-0.078627
9.172222,-0.152762
9.175000,-0.169035
9.177778,-0.087140
9.180556,-0.122621
9.183333,-0.087801
9.186111,-0.076067
9.188889,-0.155476
9.191667,-0.178291
9.194444,-0.201521
9.197222,-0.152470
9.200000,-0.134629
9.202778,-0.082008
9.205556,-0.036845
9.208333,-0.061240
9.211111,-0.126691
9.213889,-0.163642
9.216667,-0.096910
9.219444,-0.063650
9.222222,-0.084315
9.225000,-0.017509
9.227778,-0.010855
9.230556,-0.023382
9.233333,-0.044705
9.236111,-0.058635
9.238889,-0.012262
9.241667,0.020314
9.244444,0.026976
9.247222,0.031267
9.250000,0.002416
9.252778,-0.038294
9.255556,-0.107365
9.258333,-0.042797
9.261111,0.007050
9.263889,0.019598
9.266667,0.008637
9.269444,-0.013119
9.272222,-0.110812
9.275000,-0.155634
9.277778,-0.110680
9.280556,-0.049134
9.283333,-0.001616
9.286111,-0.042851
9.288889,-0.161086
9.291667,-0.188775
9.294444,-0.219861
9.297222,-0.227461
9.300000,-0.184940
9.302778,-0.184429
9.305556,-0.123947
9.308333,-0.101796
9.311111,-0.077470
9.313889,-0.078626
9.316667,0.045115
9.319444,0.145457
9.322222,0.409307
9.325000,0.598245
9.327778,0.716078
9.330556,0.815774
9.333333,0.811798
9.336111,0.703051
9.338889,0.699909
9.341667,0.553580
9.344444,0.446664
9.347222,0.214432
9.350000,0.068731
9.352778,-0.098201
9.355556,-0.185287
9.358333,-0.240659
9.361111,-0.270927
9.363889,-0.331105
9.366667,-0.376287
9.369444,-0.417658
9.372222,-0.462629
9.375000,-0.505692
9.377778,-0.443133
9.380556,-0.408048
9.383333,-0.361868
9.386111,-0.298820
9.388889,-0.272630
9.391667,-0.272520
9.394444,-0.215469
9.397222,-0.252351
9.400000,-0.174013
9.402778,-0.104422
9.405556,-0.095483
9.408333,-0.126151
9.411111,-0.194289
9.413889,-0.189144
9.416667,-0.199339
9.419444,-0.181711
9.422222,-0.110488
9.425000,-0.097646
9.427778,-0.063905
9.430556,-0.101323
9.433333,-0.177961
9.436111,-0.158934
9.438889,-0.173302
9.441667,-0.086291
9.444444,-0.030942
9.447222,-0.024466
9.450000,-0.103935
9.452778,-0.083975
9.455556,-0.166278
9.458333,-0.127987
9.461111,-0.020813
9.463889,0.044609
9.466667,0.012618
9.469444,-0.030674
9.472222,-0.128503
9.475000,-0.133266
9.477778,-0.042686
9.480556,-0.008105
9.483333,0.012648
9.486111,0.060184
9.488889,0.040600
9.491667,0.032243
9.494444,-0.007364
9.497222,0.045147
9.500000,0.055549
9.502778,0.098701
9.505556,0.153355
9.508333,0.075878
9.511111,0.155270
9.513889,0.059519
9.516667,0.070225
9.519444,0.115519
9.522222,0.202692
9.525000,0.193201
9.527778,0.107954
9.530556,0.161248
9.533333,0.077447
9.536111,0.089617
9.538889,0.079566
9.541667,0.176725
9.544444,0.165764
9.547222,0.176734
9.550000,0.125512
9.552778,0.151355
9.555556,0.139294
9.558333,0.101941
9.561111,0.140399
9.563889,0.152389
9.566667,0.187760
9.569444,0.104258
9.572222,0.054374
9.575000,0.071823
9.577778,0.037149
9.580556,0.085678
9.583333,0.066458
9.586111,0.131011
9.588889,0.130425
9.591667,0.043883
9.594444,0.034009
9.597222,-0.032087
9.600000,0.030992
9.602778,0.026356
9.605556,0.051386
9.608333,0.049993
9.611111,-0.019123
9.613889,-0.101068
9.616667,-0.100786
9.619444,-0.074165
9.622222,0.017150
9.625000,0.076838
9.627778,0.032932
9.630556,-0.110298
9.633333,-0.049715
9.636111,-0.071906
9.638889,-0.120106
9.641667,-0.044049
9.644444,0.019163
9.647222,-0.010815
9.650000,-0.107300
9.652778,-0.090130
9.655556,-0.185378
9.658333,-0.105316
9.661111,-0.023782
9.663889,-0.028664
9.666667,-0.048850
9.669444,-0.042623
9.672222,-0.081520
9.675000,-0.089808
9.677778,-0.085368
9.680556,-0.038560
9.683333,-0.014508
9.686111,-0.024859
9.688889,-0.059947
9.691667,-0.111694
9.694444,-0.164960
9.697222,-0.146020
9.700000,-0.087173
9.702778,-0.032773
9.705556,0.014583
9.708333,-0.053662
9.711111,-0.063899
9.713889,-0.090973
9.716667,-0.126054
9.719444,-0.066071
9.722222,-0.049798
9.725000,0.015646
9.727778,-0.022176
9.730556,-0.117148
9.733333,-0.110557
9.736111,-0.068985
9.738889,-0.093316
9.741667,-0.031674
9.744444,-0.003811
9.747222,-0.061540
9.750000,-0.052735
9.752778,-0.147481
9.755556,-0.134678
9.758333,-0.058698
9.761111,-0.037465
9.763889,-0.026714
9.766667,-0.007162
9.769444,-0.056268
9.772222,-0.094198
9.775000,-0.092018
9.777778,-0.114967
9.780556,-0.050397
9.783333,-0.025637
9.786111,-0.059432
9.788889,-0.068639
9.791667,-0.035355
9.794444,-0.094374
9.797222,-0.133958
9.800000,-0.101429
9.802778,-0.019550
9.805556,0.042321
9.808333,-0.033624
9.811111,-0.030177
9.813889,-0.087976
9.816667,-0.079974
9.819444,-0.098825
9.822222,0.010935
9.825000,-0.008636
9.827778,0.010188
9.830556,-0.080206
9.833333,-0.084342
9.836111,-0.082029
9.838889,-0.066578
9.841667,-0.006970
9.844444,-0.002106
9.847222,-0.023772
9.850000,0.006316
9.852778,-0.047928
9.855556,-0.112404
9.858333,-0.047528
9.861111,-0.044002
9.863889,-0.026620
9.866667,0.037012
9.869444,-0.078983
9.872222,-0.040114
9.875000,-0.092598
9.877778,-0.072738
9.880556,-0.012513
9.883333,0.028016
9.886111,-0.009760
9.888889,0.007446
9.891667,-0.052017
9.894444,-0.116571
9.897222,-0.072277
9.900000,0.013331
9.902778,0.061265
9.905556,0.044198
9.908333,-0.036500
9.911111,-0.027398
9.913889,-0.045699
9.916667,-0.044995
9.919444,-0.007823
9.922222,0.021125
9.925000,0.026692
9.927778,-0.006469
9.930556,-0.085199
9.933333,-0.051912
9.936111,-0.059424
9.938889,-0.017614
9.941667,-0.031586
9.944444,0.052912
9.947222,0.085041
9.950000,-0.011763
9.952778,-0.053486
9.955556,-0.052522
9.958333,0.024201
9.961111,-0.024594
9.963889,0.042879
9.966667,0.009893
9.969444,-0.016362
9.972222,-0.041477
9.975000,-0.016646
9.977778,0.015609
9.980556,0.016630
9.983333,0.027292
9.986111,0.117840
9.988889,0.001133
9.991667,-0.044490
9.994444,-0.104059
9.997222,0.002795
10.000000,0.029627
10.002778,0.112456
10.005556,0.010312
10.008333,0.072768
10.011111,-0.009544
10.013889,-0.015709
10.016667,-0.083738
10.019444,0.046584
10.022222,0.069577
10.025000,0.065758
10.027778,0.072042
10.030556,-0.006857
10.033333,-0.030966
10.036111,-0.025490
10.038889,-0.030808
10.041667,0.100024
10.044444,0.142275
10.047222,0.083444
10.050000,0.086229
10.052778,0.039704
10.055556,0.057198
10.058333,0.063612
10.061111,0.108885
10.063889,0.207416
10.066667,0.180296
10.069444,0.217474
10.072222,0.125501
10.075000,0.085247
10.077778,0.172923
10.080556,0.199372
10.083333,0.238573
10.086111,0.256020
10.088889,0.168874
10.091667,0.138865
10.094444,0.108071
10.097222,0.078854
10.100000,0.140283
10.102778,0.218024
10.105556,0.186746
10.108333,0.105127
10.111111,0.046037
10.113889,0.100730
10.116667,0.037555
10.119444,0.038298
10.122222,0.070070
10.125000,0.029749
10.127778,0.077963
10.130556,-0.032937
10.133333,-0.020807
10.136111,-0.057501
10.138889,0.034361
10.141667,0.077560
10.144444,0.174511
10.147222,0.237760
10.150000,0.303362
10.152778,0.393815
10.155556,0.526538
10.158333,0.783915
10.161111,0.892411
10.163889,1.055106
10.166667,1.089536
10.169444,1.028080
10.172222,0.855530
10.175000,0.706373
10.177778,0.536635
10.180556,0.367277
10.183333,0.303362
10.186111,0.154977
10.188889,0.012808
10.191667,-0.046956
10.194444,-0.121185
10.197222,-0.160262
10.200000,-0.163572
10.202778,-0.233375
10.205556,-0.226274
10.208333,-0.157255
10.211111,-0.281860
10.213889,-0.240190
10.216667,-0.242893
10.219444,-0.146113
10.222222,-0.085323
10.225000,0.008017
10.227778,0.012490
10.230556,-0.016901
10.233333,-0.047024
10.236111,0.005505
10.238889,0.002829
10.241667,0.102387
10.244444,0.198377
10.247222,0.153377
10.250000,0.099473
10.252778,0.039989
10.255556,-0.023735
10.258333,0.021852
10.261111,0.145105
10.263889,0.116015
10.266667,0.118490
10.269444,0.103587
10.272222,0.039863
10.275000,0.021349
10.277778,0.079098
10.280556,0.099609
10.283333,0.143995
10.286111,0.152061
10.288889,0.167213
10.291667,0.108749
10.294444,0.092726
10.297222,0.133874
10.300000,0.157276
10.302778,0.199071
10.305556,0.240343
10.308333,0.230177
10.311111,0.172005
10.313889,0.157552
10.316667,0.144141
10.319444,0.185310
10.322222,0.284038
10.325000,0.301232
10.327778,0.292738
10.330556,0.255684
10.333333,0.222915
10.336111,0.247458
10.338889,0.292994
10.341667,0.342584
10.344444,0.344324
10.347222,0.385475
10.350000,0.319414
10.352778,0.299713
10.355556,0.284187
10.358333,0.312686
10.361111,0.329965
10.363889,0.406935
10.366667,0.470825
10.369444,0.342118
10.372222,0.316424
10.375000,0.284031
10.377778,0.300848
10.380556,0.402084
10.383333,0.368861
10.386111,0.376450
10.388889,0.310384
10.391667,0.289713
10.394444,0.232832
10.397222,0.309249
10.400000,0.407297
10.402778,0.344804
10.405556,0.310476
10.408333,0.356571
10.411111,0.258649
10.413889,0.282253
10.416667,0.230966
10.419444,0.247393
10.422222,0.294019
10.425000,0.332085
10.427778,0.276798
10.430556,0.220074
10.433333,0.186663
10.436111,0.143198
10.438889,0.215734
10.441667,0.185121
10.444444,0.242681
10.447222,0.261160
10.450000,0.202771
10.452778,0.167000
10.455556,0.130638
10.458333,0.186491
10.461111,0.216149
10.463889,0.226925
10.466667,0.233272
10.469444,0.189264
10.472222,0.109000
10.475000,0.060581
10.477778,0.128255
10.480556,0.170031
10.483333,0.218447
10.486111,0.159062
10.488889,0.128065
10.491667,0.125182
10.494444,0.083459
10.497222,0.038616
10.500000,0.143590
10.502778,0.114087
10.505556,0.151421
10.508333,0.195414
10.511111,0.166966
10.513889,0.045442
10.516667,0.075395
10.519444,0.120950
10.522222,0.213790
10.525000,0.163362
10.527778,0.145981
10.530556,0.165984
10.533333,0.073765
10.536111,0.103141
10.538889,0.067230
10.541667,0.148726
10.544444,0.128559
10.547222,0.136012
10.550000,0.154834
10.552778,0.090159
10.555556,0.071459
10.558333,0.083133
10.561111,0.141409
10.563889,0.187283
10.566667,0.204396
10.569444,0.061881
10.572222,0.075208
10.575000,0.087422
10.577778,0.097892
10.580556,0.154130
10.583333,0.185021
10.586111,0.171878
10.588889,0.135679
10.591667,0.102360
10.594444,0.120286
10.597222,0.075138
10.600000,0.133850
10.602778,0.179867
10.605556,0.232442
10.608333,0.152706
10.611111,0.148699
10.613889,0.127327
10.616667,0.092451
10.619444,0.122971
10.622222,0.160548
10.625000,0.180908
10.627778,0.196648
10.630556,0.137424
10.633333,0.103224
10.636111,0.059013
10.638889,0.093912
10.641667,0.229620
10.644444,0.184498
10.647222,0.155923
10.650000,0.184065
10.652778,0.111548
10.655556,0.109761
10.658333,0.112771
10.661111,0.149706
10.663889,0.184311
10.666667,0.144478
10.669444,0.148944
10.672222,0.119878
10.675000,0.148883
10.677778,0.114039
10.680556,0.082480
10.683333,0.184526
10.686111,0.273431
10.688889,0.187566
10.691667,0.095357
10.694444,0.113382
10.697222,0.084528
10.700000,0.104673
10.702778,0.173332
10.705556,0.197656
10.708333,0.114691
10.711111,0.094461
10.713889,0.099540
10.716667,0.090841
10.719444,0.149719
10.722222,0.142421
10.725000,0.218307
10.727778,0.143667
10.730556,0.187794
10.733333,0.052569
10.736111,0.067727
10.738889,0.143049
10.741667,0.222693
10.744444,0.206591
10.747222,0.203216
10.750000,0.148679
10.752778,0.079180
10.755556,0.084446
10.758333,0.087146
10.761111,0.127352
10.763889,0.207754
10.766667,0.158423
10.769444,0.167183
10.772222,0.077812
10.775000,0.107986
10.777778,0.102378
10.780556,0.200139
10.783333,0.202347
10.786111,0.233464
10.788889,0.143906
10.791667,0.126222
10.794444,0.070924
10.797222,0.098942
10.800000,0.141841
10.802778,0.166278
10.805556,0.162570
10.808333,0.132428
10.811111,0.062575
10.813889,0.071224
10.816667,0.125450
10.819444,0.093311
10.822222,0.141063
10.825000,0.253708
10.827778,0.163036
10.830556,0.150947
10.833333,0.126548
10.836111,0.123724
10.838889,0.088408
10.841667,0.169716
10.844444,0.152972
10.847222,0.264807
10.850000,0.106365
10.852778,0.085889
10.855556,0.076971
10.858333,0.089793
10.861111,0.220172
10.863889,0.285565
10.866667,0.199033
10.869444,0.143918
10.872222,0.081239
10.875000,0.129617
10.877778,0.152579
10.880556,0.191398
10.883333,0.260944
10.886111,0.279172
10.888889,0.256883
10.891667,0.205590
10.894444,0.167763
10.897222,0.241435
10.900000,0.269303
10.902778,0.342219
10.905556,0.357448
10.908333,0.272745
10.911111,0.234605
10.913889,0.227700
10.916667,0.223164
10.919444,0.311080
10.922222,0.336920
10.925000,0.372636
10.927778,0.327555
10.930556,0.273608
10.933333,0.260118
10.936111,0.225054
10.938889,0.232719
10.941667,0.306388
10.944444,0.278044
10.947222,0.241546
10.950000,0.172097
10.952778,0.161918
10.955556,0.145806
10.958333,0.108389
10.961111,0.169359
10.963889,0.084359
10.966667,0.131093
10.969444,0.102440
10.972222,0.060693
10.975000,0.171478
10.977778,0.169684
10.980556,0.277503
10.983333,0.430939
10.986111,0.509800
10.988889,0.677312
10.991667,0.855212
10.994444,0.932689
10.997222,1.042118
11.000000,1.181380
11.002778,1.181150
11.005556,1.059625
11.008333,0.851602
11.011111,0.641881
11.013889,0.426269
11.016667,0.276951
11.019444,0.190310
11.022222,0.149643
11.025000,0.080192
11.027778,-0.015071
11.030556,-0.054595
11.033333,-0.132603
11.036111,-0.126434
11.038889,-0.189631
11.041667,-0.126398
11.044444,-0.094569
11.047222,-0.101721
11.050000,-0.078563
11.052778,-0.077809
11.055556,-0.061861
11.058333,-0.016515
11.061111,0.056566
11.063889,0.084083
11.066667,0.118763
11.069444,0.105290
11.072222,0.060216
11.075000,0.096474
11.077778,0.141763
11.080556,0.122618
11.083333,0.195280
11.086111,0.161316
11.088889,0.155057
11.091667,0.103186
11.094444,0.119649
11.097222,0.094306
11.100000,0.185699
11.102778,0.188920
11.105556,0.190663
11.108333,0.151529
11.111111,0.158151
11.113889,0.151375
11.116667,0.140577
11.119444,0.238673
11.122222,0.260075
11.125000,0.231008
11.127778,0.218363
11.130556,0.207035
11.133333,0.139370
11.136111,0.202311
11.138889,0.214840
11.141667,0.260843
11.144444,0.305297
11.147222,0.332946
11.150000,0.255775
11.152778,0.216777
11.155556,0.262411
11.158333,0.278382
11.161111,0.289789
11.163889,0.337362
11.166667,0.347177
11.169444,0.325174
11.172222,0.240194
11.175000,0.223863
11.177778,0.268136
11.180556,0.312992
11.183333,0.363134
11.186111,0.410555
11.188889,0.361380
11.191667,0.334446
11.194444,0.271141
11.197222,0.307827
11.200000,0.379746
11.202778,0.419687
11.205556,0.391687
11.208333,0.393911
11.211111,0.412028
11.213889,0.313983
11.216667,0.294972
11.219444,0.342003
11.222222,0.386915
11.225000,0.392899
11.227778,0.373406
11.230556,0.284384
11.233333,0.257789
11.236111,0.271591
11.238889,0.293622
11.241667,0.315918
11.244444,0.343709
11.247222,0.331500
11.250000,0.309410
11.252778,0.232640
11.255556,0.227730
11.258333,0.214772
11.261111,0.281303
11.263889,0.296362
11.266667,0.298542
11.269444,0.250651
11.272222,0.197564
11.275000,0.150777
11.277778,0.170871
11.280556,0.228453
11.283333,0.204099
11.286111,0.201297
11.288889,0.188837
11.291667,0.147214
11.294444,0.079593
11.297222,0.107153
11.300000,0.139361
11.302778,0.108844
11.305556,0.174802
11.308333,0.147901
11.311111,0.101492
11.313889,0.114973
11.316667,0.036069
11.319444,0.079058
11.322222,0.063141
11.325000,0.142068
11.327778,0.124116
11.330556,0.077422
11.333333,0.089081
11.336111,0.075910
11.338889,0.080396
11.341667,0.107274
11.344444,0.171782
11.347222,0.127948
11.350000,0.064280
11.352778,-0.002276
11.355556,0.023805
11.358333,0.082770
11.361111,0.169440
11.363889,0.131847
11.366667,0.102376
11.369444,0.054234
11.372222,0.064624
11.375000,-0.023597
11.377778,0.062877
11.380556,0.110908
11.383333,0.133293
11.386111,0.116523
11.388889,0.109418
11.391667,0.054748
11.394444,0.001297
11.397222,0.090359
11.400000,0.061874
11.402778,0.133279
11.405556,0.047669
11.408333,0.133567
11.411111,0.096523
11.413889,0.022761
11.416667,0.041603
11.419444,0.075505
11.422222,0.079578
11.425000,0.132425
11.427778,0.073182
11.430556,0.037644
11.433333,0.054384
11.436111,0.045418
11.438889,0.024156
11.441667,0.064725
11.444444,0.090887
11.447222,0.120576
11.450000,0.029575
11.452778,0.031251
11.455556,0.031294
11.458333,0.029756
11.461111,0.104080
11.463889,0.093804
11.466667,0.092105
11.469444,0.033853
11.472222,0.052131
11.475000,-0.019974
11.477778,0.030640
11.480556,0.058092
11.483333,0.062529
11.486111,0.078783
11.488889,0.107917
11.491667,0.029637
11.494444,-0.031671
11.497222,0.017957
11.500000,0.041969
11.502778,0.187529
11.505556,0.102650
11.508333,0.057687
11.511111,0.068855
11.513889,-0.059613
11.516667,0.001377
11.519444,0.092244
11.522222,0.068991
11.525000,0.037582
11.527778,0.059085
11.530556,0.073017
11.533333,0.005284
11.536111,-0.035608
11.538889,-0.001878
11.541667,0.043226
11.544444,0.094329
11.547222,0.111936
11.550000,0.064294
11.552778,0.007333
11.555556,-0.058003
11.558333,-0.034420
11.561111,0.062747
11.563889,0.035499
11.566667,0.064641
11.569444,0.045142
11.572222,-0.039704
11.575000,-0.054939
11.577778,-0.009948
11.580556,0.048032
11.583333,0.098612
11.586111,0.087885
11.588889,0.041223
11.591667,-0.026251
11.594444,-0.061010
11.597222,-0.034050
11.600000,0.031098
11.602778,0.066421
11.605556,0.003484
11.608333,0.017890
11.611111,0.034713
11.613889,-0.029710
11.616667,-0.071695
11.619444,0.075326
11.622222,0.043823
11.625000,0.073299
11.627778,0.055111
11.630556,-0.009508
11.633333,-0.055710
11.636111,0.025300
11.638889,0.020846
11.641667,0.056724
11.644444,0.072810
11.647222,0.013699
11.650000,0.043038
11.652778,-0.059670
11.655556,-0.037600
11.658333,-0.071826
11.661111,-0.042554
11.663889,0.057319
11.666667,0.019608
11.669444,-0.050943
11.672222,-0.016305
11.675000,0.012913
11.677778,0.008717
11.680556,0.000203
11.683333,0.043140
11.686111,0.073846
11.688889,0.052044
11.691667,-0.032513
11.694444,-0.043367
11.697222,-0.021763
11.700000,0.027498
11.702778,0.049304
11.705556,0.065541
11.708333,0.092029
11.711111,0.051368
11.713889,0.006852
11.716667,0.055823
11.719444,0.035900
11.722222,0.146060
11.725000,0.140795
11.727778,0.214075
11.730556,0.048371
11.733333,0.037329
11.736111,0.074550
11.738889,0.110352
11.741667,0.204263
11.744444,0.153618
11.747222,0.191838
11.750000,0.161409
11.752778,0.107674
11.755556,0.043256
11.758333,0.133337
11.761111,0.163310
11.763889,0.166180
11.766667,0.141408
11.769444,0.097340
11.772222,0.036587
11.775000,0.028897
11.777778,0.016234
11.780556,0.017089
11.783333,0.029966
11.786111,0.023851
11.788889,0.001411
11.791667,-0.071774
11.794444,-0.111209
11.797222,-0.108826
11.800000,-0.111955
11.802778,-0.005921
11.805556,-0.027861
11.808333,-0.022306
11.811111,0.016368
11.813889,-0.006383
11.816667,0.133949
11.819444,0.357224
11.822222,0.476072
11.825000,0.746767
11.827778,0.890279
11.830556,0.897016
11.833333,0.918536
11.836111,0.899715
11.838889,0.773761
11.841667,0.700788
11.844444,0.504286
11.847222,0.329885
11.850000,0.134172
11.852778,0.009889
11.855556,-0.071334
11.858333,-0.162628
11.861111,-0.215128
11.863889,-0.232233
11.866667,-0.235885
11.869444,-0.261590
11.872222,-0.368364
11.875000,-0.417873
11.877778,-0.358752
11.880556,-0.327734
11.883333,-0.266176
11.886111,-0.242174
11.888889,-0.161131
11.891667,-0.283460
11.894444,-0.173941
11.897222,-0.173295
11.900000,-0.112262
11.902778,0.004375
11.905556,-0.046441
11.908333,-0.062821
11.911111,-0.084062
11.913889,-0.094795
11.916667,-0.114831
11.919444,-0.112634
11.922222,-0.049153
11.925000,0.034582
11.927778,-0.017863
11.930556,-0.045575
11.933333,-0.099504
11.936111,-0.112797
11.938889,-0.010181
11.941667,-0.021131
11.944444,-0.001309
11.947222,0.037501
11.950000,-0.051459
11.952778,-0.081694
11.955556,-0.069899
11.958333,-0.041029
11.961111,0.014126
11.963889,0.104583
11.966667,0.054178
11.969444,-0.055615
11.972222,-0.008753
11.975000,-0.028439
11.977778,-0.003335
11.980556,0.050856
11.983333,0.084712
11.986111,0.095297
11.988889,0.093102
11.991667,0.024119
11.994444,-0.004515
11.997222,0.133290
12.000000,0.067019
12.002778,0.137252
12.005556,0.107545
12.008333,0.138615
12.011111,0.071630
12.013889,0.062676
12.016667,0.116739
12.019444,0.139411
12.022222,0.187812
12.025000,0.139567
12.027778,0.233387
12.030556,0.104457
12.033333,0.153494
12.036111,0.135906
12.038889,0.153015
12.041667,0.151933
12.044444,0.205389
12.047222,0.174030
12.050000,0.148226
12.052778,0.098320
12.055556,0.029770
12.058333,0.144192
12.061111,0.144929
12.063889,0.156821
12.066667,0.144434
12.069444,0.130432
12.072222,0.044644
12.075000,-0.021858
12.077778,0.067733
12.080556,0.103494
12.083333,0.107908
12.086111,0.074337
12.088889,0.072646
12.091667,-0.025022
12.094444,-0.045104
12.097222,-0.034777
12.100000,0.042557
12.102778,0.035999
12.105556,0.035899
12.108333,0.075474
12.111111,-0.022706
12.113889,-0.060730
12.116667,-0.085746
12.119444,-0.065050
12.122222,-0.078722
12.125000,0.027339
12.127778,-0.012243
12.130556,-0.077651
12.133333,-0.116427
12.136111,-0.098983
12.138889,-0.142563
12.141667,-0.075927
12.144444,-0.072174
12.147222,0.000333
12.150000,-0.068345
12.152778,-0.202222
12.155556,-0.195455
12.158333,-0.132491
12.161111,-0.103083
12.163889,-0.101035
12.166667,-0.008724
12.169444,-0.094209
12.172222,-0.131895
12.175000,-0.186342
12.177778,-0.127495
12.180556,-0.121072
12.183333,-0.084745
12.186111,-0.055335
12.188889,-0.153431
12.191667,-0.099683
12.194444,-0.167222
12.197222,-0.124123
12.200000,-0.157251
12.202778,-0.115070
12.205556,-0.111939
12.208333,-0.094421
12.211111,-0.142624
12.213889,-0.188963
12.216667,-0.202288
12.219444,-0.175740
12.222222,-0.098851
12.225000,-0.093961
12.227778,-0.118866
12.230556,-0.093137
12.233333,-0.177056
12.236111,-0.140576
12.238889,-0.165190
12.241667,-0.100138
12.244444,-0.085287
12.247222,-0.145866
12.250000,-0.090758
12.252778,-0.176329
12.255556,-0.161178
12.258333,-0.182244
12.261111,-0.122876
12.263889,-0.114396
12.266667,-0.055333
12.269444,-0.118024
12.272222,-0.157507
12.275000,-0.145960
12.277778,-0.134477
12.280556,-0.105704
12.283333,-0.137012
12.286111,-0.111857
12.288889,-0.151294
12.291667,-0.141755
12.294444,-0.183001
12.297222,-0.219193
12.300000,-0.145128
12.302778,-0.146275
12.305556,-0.092391
12.308333,-0.164978
12.311111,-0.141828
12.313889,-0.176510
12.316667,-0.127195
12.319444,-0.124642
12.322222,-0.122204
12.325000,-0.067371
12.327778,-0.151956
12.330556,-0.179970
12.333333,-0.175965
12.336111,-0.254631
12.338889,-0.161352
12.341667,-0.148977
12.344444,-0.091318
12.347222,-0.137853
12.350000,-0.131317
12.352778,-0.181984
12.355556,-0.151704
12.358333,-0.169482
12.361111,-0.150847
12.363889,-0.105512
12.366667,-0.142313
12.369444,-0.124614
12.372222,-0.160114
12.375000,-0.121780
12.377778,-0.196831
12.380556,-0.145566
12.383333,-0.120359
12.386111,-0.093209
12.388889,-0.118170
12.391667,-0.173485
12.394444,-0.163691
12.397222,-0.204006
12.400000,-0.117758
12.402778,-0.093031
12.405556,-0.098750
12.408333,-0.132214
12.411111,-0.092200
12.413889,-0.219523
12.416667,-0.182517
12.419444,-0.179463
12.422222,-0.062683
12.425000,-0.071899
12.427778,-0.136823
12.430556,-0.142021
12.433333,-0.184388
12.436111,-0.211397
12.438889,-0.143362
12.441667,-0.112415
12.444444,-0.093467
12.447222,-0.112214
12.450000,-0.136403
12.452778,-0.180827
12.455556,-0.196942
12.458333,-0.193768
12.461111,-0.081683
12.463889,-0.134181
12.466667,-0.093574
12.469444,-0.150676
12.472222,-0.129147
12.475000,-0.226938
12.477778,-0.204066
12.480556,-0.170311
12.483333,-0.096921
12.486111,-0.144155
12.488889,-0.147222
12.491667,-0.239552
12.494444,-0.192020
12.497222,-0.203307
12.500000,-0.194062
12.502778,-0.078293
12.505556,-0.138795
12.508333,-0.099407
12.511111,-0.185788
12.513889,-0.145720
12.516667,-0.166456
12.519444,-0.183096
12.522222,-0.137681
12.525000,-0.071808
12.527778,-0.112828
12.530556,-0.147359
12.533333,-0.134538
12.536111,-0.193902
12.538889,-0.133071
12.541667,-0.058496
12.544444,-0.031225
12.547222,-0.063044
12.550000,-0.096335
12.552778,-0.168651
12.555556,-0.149195
12.558333,-0.073564
12.561111,-0.034996
12.563889,0.011168
12.566667,0.045772
12.569444,-0.047104
12.572222,-0.051944
12.575000,-0.050948
12.577778,-0.055313
12.580556,0.052430
12.583333,0.072406
12.586111,0.056737
12.588889,0.069370
12.591667,-0.075840
12.594444,-0.061210
12.597222,-0.046257
12.600000,-0.054696
12.602778,0.010882
12.605556,-0.030261
12.608333,-0.011076
12.611111,-0.053462
12.613889,-0.119555
12.616667,-0.194429
12.619444,-0.150985
12.622222,-0.085058
12.625000,-0.106168
12.627778,-0.227000
12.630556,-0.165884
12.633333,-0.240321
12.636111,-0.266777
12.638889,-0.162388
12.641667,-0.134732
12.644444,-0.056552
12.647222,0.041583
12.650000,0.152202
12.652778,0.245659
12.655556,0.357363
12.658333,0.552849
12.661111,0.755372
12.663889,0.828763
12.666667,0.919403
12.669444,0.804472
12.672222,0.687959
12.675000,0.499606
12.677778,0.365750
12.680556,0.226811
12.683333,0.018941
12.686111,0.000948
12.688889,-0.108774
12.691667,-0.231022
12.694444,-0.332692
12.697222,-0.321039
12.700000,-0.365931
12.702778,-0.357391
12.705556,-0.349666
12.708333,-0.401567
12.711111,-0.473791
12.713889,-0.528489
12.716667,-0.433834
12.719444,-0.323316
12.722222,-0.274960
12.725000,-0.183232
12.727778,-0.185979
12.730556,-0.164022
12.733333,-0.223967
12.736111,-0.188464
12.738889,-0.145945
12.741667,-0.066084
12.744444,-0.132669
12.747222,-0.102284
12.750000,-0.098371
12.752778,-0.113156
12.755556,-0.160796
12.758333,-0.150014
12.761111,-0.073744
12.763889,-0.037628
12.766667,-0.075032
12.769444,-0.085551
12.772222,-0.097177
12.775000,-0.089747
12.777778,-0.102013
12.780556,-0.077509
12.783333,-0.040865
12.786111,-0.013522
12.788889,-0.057936
12.791667,-0.084869
12.794444,-0.140180
12.797222,-0.051900
12.800000,-0.079692
12.802778,-0.012807
12.805556,0.021660
12.808333,0.062137
12.811111,-0.044210
12.813889,-0.073010
12.816667,-0.057304
12.819444,0.052317
12.822222,-0.032186
12.825000,0.048828
12.827778,0.151857
12.830556,0.055641
12.833333,-0.021171
12.836111,0.015616
12.838889,0.057108
12.841667,0.130615
12.844444,0.192363
12.847222,0.145205
12.850000,0.085907
12.852778,0.093759
12.855556,0.044051
12.858333,0.063425
12.861111,0.088270
12.863889,0.127857
12.866667,0.147383
12.869444,0.106735
12.872222,0.112303
12.875000,0.049957
12.877778,0.009616
12.880556,0.112792
12.883333,0.163181
12.886111,0.160728
12.888889,0.191754
12.891667,0.082139
12.894444,0.098565
12.897222,0.077736
12.900000,0.110010
12.902778,0.118684
12.905556,0.146630
12.908333,0.094513
12.911111,0.073437
12.913889,0.024056
12.916667,-0.001044
12.919444,0.083975
12.922222,0.100043
12.925000,0.083804
12.927778,0.075900
12.930556,0.020402
12.933333,-0.045427
12.936111,-0.028521
12.938889,-0.026753
12.941667,-0.001522
12.944444,-0.004519
12.947222,0.015840
12.950000,-0.001025
12.952778,-0.083190
12.955556,-0.003352
12.958333,-0.033509
12.961111,0.016150
12.963889,0.026106
12.966667,0.049841
12.969444,-0.067941
12.972222,-0.165608
12.975000,-0.123336
12.977778,-0.078336
12.980556,-0.052402
12.983333,-0.016462
12.986111,0.016462
12.988889,-0.043450
12.991667,-0.074664
12.994444,-0.152449
12.997222,-0.147365
13.000000,-0.028760
13.002778,-0.036657
13.005556,-0.048080
13.008333,-0.072751
13.011111,-0.116033
13.013889,-0.147937
13.016667,-0.161592
13.019444,-0.133505
13.022222,-0.053444
13.025000,-0.047364
13.027778,-0.013994
13.030556,-0.078948
13.033333,-0.114055
13.036111,-0.147597
13.038889,-0.098614
13.041667,-0.041578
13.044444,-0.006176
13.047222,-0.040882
13.050000,-0.043436
13.052778,-0.113292
13.055556,-0.100087
13.058333,-0.113713
13.061111,-0.110667
13.063889,-0.017716
13.066667,-0.007041
13.069444,-0.045501
13.072222,-0.090252
13.075000,-0.130563
13.077778,-0.125769
13.080556,-0.043510
13.083333,-0.011961
13.086111,-0.037207
13.088889,-0.016285
13.091667,-0.117456
13.094444,-0.132014
13.097222,-0.053773
13.100000,-0.037799
13.102778,-0.035586
13.105556,-0.004574
13.108333,-0.032079
13.111111,-0.160476
13.113889,-0.134468
13.116667,-0.104397
13.119444,-0.078230
13.122222,-0.018574
13.125000,0.026483
13.127778,-0.034182
13.130556,-0.096360
13.133333,-0.088774
13.136111,-0.111271
13.138889,-0.075538
13.141667,-0.036774
13.144444,0.064210
13.147222,-0.080468
13.150000,-0.062461
13.152778,-0.088484
13.155556,-0.122005
13.158333,-0.046593
13.161111,-0.006345
13.163889,-0.001547
13.166667,-0.011171
13.169444,-0.040281
13.172222,-0.080139
13.175000,-0.096457
13.177778,-0.081134
13.180556,-0.026346
13.183333,0.024049
13.186111,-0.031017
13.188889,-0.054757
13.191667,-0.117036
13.194444,-0.062071
13.197222,-0.068856
13.200000,-0.022145
13.202778,-0.041125
13.205556,0.067009
13.208333,-0.028282
13.211111,-0.046307
13.213889,-0.054841
13.216667,-0.105632
13.219444,-0.057027
13.222222,0.006328
13.225000,0.105306
13.227778,0.011525
13.230556,0.010630
13.233333,-0.035238
13.236111,-0.063280
13.238889,-0.073340
13.241667,0.031003
13.244444,-0.020718
13.247222,0.062088
13.250000,-0.017465
13.252778,-0.140498
13.255556,-0.081368
13.258333,-0.026517
13.261111,-0.010367
13.263889,0.048856
13.266667,-0.000999
13.269444,-0.048518
13.272222,-0.051523
13.275000,-0.065513
13.277778,-0.058270
13.280556,0.030603
13.283333,0.003679
13.286111,0.043045
13.288889,0.006588
13.291667,-0.083470
13.294444,-0.099797
13.297222,-0.048147
13.300000,0.050017
13.302778,0.047046
13.305556,-0.010379
13.308333,-0.075381
13.311111,-0.001391
13.313889,-0.055368
13.316667,-0.013775
13.319444,-0.039030
13.322222,0.039504
13.325000,0.073029
13.327778,0.017145
13.330556,-0.022250
13.333333,-0.041963
13.336111,-0.029084
13.338889,-0.014774
13.341667,0.058242
13.344444,0.040835
13.347222,0.005543
13.350000,0.068306
13.352778,-0.045218
13.355556,-0.052451
13.358333,-0.010049
13.361111,0.039666
13.363889,0.060174
13.366667,0.072497
13.369444,0.042888
13.372222,0.014980
13.375000,-0.071553
13.377778,0.081574
13.380556,0.070446
13.383333,0.136503
13.386111,0.091614
13.388889,0.099561
13.391667,0.062270
13.394444,0.113138
13.397222,0.072993
13.400000,0.161653
13.402778,0.166918
13.405556,0.191912
13.408333,0.180663
13.411111,0.189668
13.413889,0.068086
13.416667,0.090694
13.419444,0.106216
13.422222,0.170871
13.425000,0.193335
13.427778,0.146159
13.430556,0.125171
13.433333,0.044448
13.436111,0.062106
13.438889,0.149297
13.441667,0.157617
13.444444,0.164677
13.447222,0.105990
13.450000,0.037483
13.452778,-0.006074
13.455556,-0.004386
13.458333,0.025113
13.461111,0.047303
13.463889,0.053440
13.466667,0.002646
13.469444,-0.002647
13.472222,-0.033204
13.475000,-0.011177
13.477778,0.128648
13.480556,0.133708
13.483333,0.320924
13.486111,0.505016
13.488889,0.555889
13.491667,0.707140
13.494444,0.837407
13.497222,0.962991
13.500000,0.997910
13.502778,1.063486
13.505556,0.969783
13.508333,0.787182
13.511111,0.530628
13.513889,0.361664
13.516667,0.189489
13.519444,0.122349
13.522222,0.144482
13.525000,0.026809
13.527778,-0.090068
13.530556,-0.141033
13.533333,-0.264442
13.536111,-0.296655
13.538889,-0.283019
13.541667,-0.229790
13.544444,-0.155994
13.547222,-0.155876
13.550000,-0.163294
13.552778,-0.211091
13.555556,-0.163944
13.558333,-0.075669
13.561111,-0.025501
13.563889,0.043864
13.566667,0.084324
13.569444,0.042676
13.572222,0.030954
13.575000,0.062344
13.577778,0.033047
13.580556,0.118632
13.583333,0.138005
13.586111,0.083827
13.588889,0.067705
13.591667,0.036513
13.594444,0.014634
13.597222,0.051712
13.600000,0.114605
13.602778,0.175831
13.605556,0.162350
13.608333,0.119782
13.611111,0.033183
13.613889,0.072805
13.616667,0.080396
13.619444,0.125318
13.622222,0.229768
13.625000,0.227931
13.627778,0.203015
13.630556,0.116724
13.633333,0.102846
13.636111,0.119287
13.638889,0.136625
13.641667,0.225145
13.644444,0.253466
13.647222,0.207771
13.650000,0.246801
13.652778,0.184580
13.655556,0.127712
13.658333,0.211343
13.661111,0.272477
13.663889,0.332109
13.666667,0.298007
13.669444,0.307070
13.672222,0.255517
13.675000,0.200796
13.677778,0.223513
13.680556,0.347923
13.683333,0.391741
13.686111,0.375716
13.688889,0.386937
13.691667,0.336975
13.694444,0.306205
13.697222,0.273268
13.700000,0.394108
13.702778,0.399070
13.705556,0.384098
13.708333,0.352369
13.711111,0.338230
13.713889,0.249951
13.716667,0.323437
13.719444,0.306398
13.722222,0.384166
13.725000,0.371793
13.727778,0.357531
13.730556,0.297207
13.733333,0.275168
13.736111,0.327199
13.738889,0.335690
13.741667,0.340206
13.744444,0.346039
13.747222,0.353885
13.750000,0.316627
13.752778,0.211833
13.755556,0.215655
13.758333,0.179693
13.761111,0.302275
13.763889,0.352593
13.766667,0.281633
13.769444,0.173270
13.772222,0.207052
13.775000,0.136600
13.777778,0.154725
13.780556,0.227556
13.783333,0.244618
13.786111,0.219934
13.788889,0.179442
13.791667,0.155174
13.794444,0.109783
13.797222,0.094976
13.800000,0.152168
13.802778,0.206559
13.805556,0.198221
13.808333,0.133493
13.811111,0.160354
13.813889,0.015817
13.816667,0.085740
13.819444,0.112879
13.822222,0.174742
13.825000,0.203235
13.827778,0.200777
13.830556,0.103436
13.833333,0.106633
13.836111,0.090248
13.838889,0.062091
13.841667,0.211880
13.844444,0.135398
13.847222,0.179783
13.850000,0.140277
13.852778,0.098321
13.855556,0.064136
13.858333,0.127966
13.861111,0.098438
13.863889,0.173214
13.866667,0.154695
13.869444,0.116823
13.872222,0.109368
13.875000,0.111187
13.877778,0.086669
13.880556,0.161476
13.883333,0.174452
13.886111,0.150162
13.888889,0.139635
13.891667,0.096611
13.894444,0.060787
13.897222,0.105817
13.900000,0.138646
13.902778,0.122535
13.905556,0.131995
13.908333,0.170389
13.911111,0.091438
13.913889,0.095423
13.916667,0.113820
13.919444,0.087228
13.922222,0.124177
13.925000,0.234958
13.927778,0.177751
13.930556,0.114141
13.933333,0.064415
13.936111,0.073767
13.938889,0.083573
13.941667,0.188218
13.944444,0.162973
13.947222,0.208460
13.950000,0.125646
13.952778,0.068372
13.955556,0.076251
13.958333,0.034858
13.961111,0.152359
13.963889,0.181057
13.966667,0.207510
13.969444,0.091847
13.972222,0.142754
13.975000,0.114935
13.977778,0.146014
13.980556,0.147965
13.983333,0.214850
13.986111,0.144244
13.988889,0.180149
13.991667,0.093778
13.994444,0.043383
13.997222,0.070387
14.000000,0.142824
14.002778,0.156472
14.005556,0.203659
14.008333,0.114122
14.011111,0.062684
14.013889,0.138010
14.016667,0.127857
14.019444,0.104100
14.022222,0.176524
14.025000,0.225269
14.027778,0.189604
14.030556,0.140854
14.033333,0.134841
14.036111,0.076575
14.038889,0.129504
14.041667,0.170320
14.044444,0.187094
14.047222,0.172822
14.050000,0.148574
14.052778,0.109287
14.055556,0.066029
14.058333,0.145937
14.061111,0.134850
14.063889,0.187632
14.066667,0.181786
14.069444,0.166914
14.072222,0.051917
14.075000,0.124494
14.077778,0.095450
14.080556,0.193310
14.083333,0.177110
14.086111,0.193793
14.088889,0.222905
14.091667,0.115183
14.094444,0.136537
14.097222,0.111586
14.100000,0.161280
14.102778,0.189315
14.105556,0.223682
14.108333,0.153528
14.111111,0.102556
14.113889,0.083116
14.116667,0.109024
14.119444,0.134099
14.122222,0.202922
14.125000,0.238680
14.127778,0.152461
14.130556,0.118952
14.133333,0.063316
14.136111,0.163678
14.138889,0.141834
14.141667,0.189228
14.144444,0.158903
14.147222,0.188166
14.150000,0.165203
14.152778,0.104064
14.155556,0.132998
14.158333,0.194336
14.161111,0.138681
14.163889,0.166320
14.166667,0.167548
14.169444,0.207701
14.172222,0.150310
14.175000,0.097582
14.177778,0.121236
14.180556,0.137301
14.183333,0.224213
14.186111,0.191214
14.188889,0.166728
14.191667,0.152956
14.194444,0.107613
14.197222,0.120555
14.200000,0.170322
14.202778,0.237012
14.205556,0.279121
14.208333,0.229505
14.211111,0.201207
14.213889,0.149274
14.216667,0.146466
14.219444,0.231270
14.222222,0.267366
14.225000,0.247395
14.227778,0.272349
14.230556,0.248593
14.233333,0.210313
14.236111,0.274734
14.238889,0.281800
14.241667,0.356593
14.244444,0.351876
14.247222,0.338095
14.250000,0.270055
14.252778,0.259161
14.255556,0.245392
14.258333,0.223647
14.261111,0.284436
14.263889,0.313317
14.266667,0.323133
14.269444,0.280469
14.272222,0.198198
14.275000,0.201041
14.277778,0.187747
14.280556,0.134968
14.283333,0.225992
14.286111,0.258483
14.288889,0.124582
14.291667,0.113287
14.294444,0.111338
14.297222,0.035355
14.300000,0.089520
14.302778,0.094142
14.305556,0.212699
14.308333,0.172462
14.311111,0.188107
14.313889,0.274697
14.316667,0.363402
14.319444,0.487949
14.322222,0.695729
14.325000,0.915563
14.327778,1.014214
14.330556,1.033087
14.333333,1.097196
14.336111,1.011249
14.338889,1.026262
14.341667,0.870559
14.344444,0.688251
14.347222,0.514721
14.350000,0.293413
14.352778,0.159038
14.355556,0.117295
14.358333,0.103187
14.361111,0.038593
14.363889,-0.008271
14.366667,-0.065997
14.369444,-0.150485
14.372222,-0.122826
14.375000,-0.215944
14.377778,-0.121861
14.380556,-0.081920
14.383333,-0.109816
14.386111,-0.035757
14.388889,-0.025413
14.391667,-0.011241
14.394444,-0.000859
14.397222,0.129716
14.400000,0.067322
14.402778,0.160439
14.405556,0.193810
14.408333,0.158229
14.411111,0.124208
14.413889,0.062849
14.416667,0.103369
14.419444,0.152014
14.422222,0.189071
14.425000,0.216002
14.427778,0.225350
14.430556,0.172398
14.433333,0.114187
14.436111,0.075852
14.438889,0.125809
14.441667,0.182539
14.444444,0.224466
14.447222,0.195455
14.450000,0.147607
14.452778,0.106243
14.455556,0.086266
14.458333,0.158186
14.461111,0.168775
14.463889,0.218596
14.466667,0.239297
14.469444,0.182912
14.472222,0.200347
14.475000,0.200356
14.477778,0.186826
14.480556,0.238530
14.483333,0.310070
14.486111,0.284036
14.488889,0.260009
14.491667,0.285250
14.494444,0.259602
14.497222,0.269966
14.500000,0.325784
14.502778,0.284621
14.505556,0.402886
14.508333,0.356899
14.511111,0.340119
14.513889,0.297882
14.516667,0.297314
14.519444,0.327587
14.522222,0.392500
14.525000,0.394202
14.527778,0.415286
14.530556,0.303703
14.533333,0.302580
14.536111,0.377896
14.538889,0.328300
14.541667,0.381900
14.544444,0.385927
14.547222,0.409874
14.550000,0.336980
14.552778,0.312028
14.555556,0.328236
14.558333,0.301472
14.561111,0.382967
14.563889,0.408022
14.566667,0.404919
14.569444,0.335954
14.572222,0.380780
14.575000,0.289539
14.577778,0.277386
14.580556,0.273772
14.583333,0.323118
14.586111,0.363693
14.588889,0.333384
14.591667,0.275369
14.594444,0.221354
14.597222,0.162133
14.600000,0.243881
14.602778,0.221625
14.605556,0.216657
14.608333,0.235905
14.611111,0.194257
14.613889,0.167982
14.616667,0.151973
14.619444,0.180430
14.622222,0.168893
14.625000,0.206606
14.627778,0.140482
14.630556,0.078915
14.633333,0.121099
14.636111,0.067422
14.638889,0.141224
14.641667,0.185871
14.644444,0.154062
14.647222,0.175492
14.650000,0.096010
14.652778,0.018800
14.655556,0.063826
14.658333,0.067369
14.661111,0.107744
14.663889,0.207648
14.666667,0.096678
14.669444,0.117245
14.672222,0.033178
14.675000,0.070640
14.677778,0.068569
14.680556,0.110301
14.683333,0.103783
14.686111,0.111531
14.688889,0.131203
14.691667,0.113255
14.694444,0.049212
14.697222,0.017789
14.700000,0.092203
14.702778,0.192227
14.705556,0.132518
14.708333,0.148196
14.711111,0.039195
14.713889,0.029447
14.716667,0.052189
14.719444,0.079366
14.722222,0.084516
14.725000,0.100334
14.727778,0.135669
14.730556,0.100213
14.733333,0.074487
14.736111,0.078837
14.738889,0.057925
14.741667,0.085937
14.744444,0.159332
14.747222,0.128545
14.750000,0.038667
14.752778,-0.001880
14.755556,0.032239
14.758333,0.035694
14.761111,0.081609
14.763889,0.143750
14.766667,0.129949
14.769444,0.111742
14.772222,-0.027637
14.775000,0.019334
14.777778,0.049715
14.780556,0.023180
14.783333,0.083229
14.786111,0.080622
14.788889,0.075881
14.791667,0.081239
14.794444,0.068114
14.797222,-0.006782
14.800000,0.071016
14.802778,0.109554
14.805556,0.114625
14.808333,0.089991
14.811111,0.044297
14.813889,0.055192
14.816667,0.040583
14.819444,0.009584
14.822222,0.105341
14.825000,0.125359
14.827778,0.089432
14.830556,0.072359
14.833333,0.008694
14.836111,0.004634
14.838889,0.031392
14.841667,0.008559
14.844444,0.090183
14.847222,0.060857
14.850000,0.006255
14.852778,0.045812
14.855556,0.006224
14.858333,0.013686
14.861111,0.038980
14.863889,0.093933
14.866667,0.110348
14.869444,0.020416
14.872222,0.003496
14.875000,0.011059
14.877778,-0.055967
14.880556,0.040443
14.883333,0.063144
14.886111,0.074924
14.888889,0.033239
14.891667,0.009547
14.894444,0.038117
14.897222,-0.019142
14.900000,0.036859
14.902778,0.125480
14.905556,0.059303
14.908333,0.105230
14.911111,0.008074
14.913889,0.030713
14.916667,0.002670
14.919444,0.023220
14.922222,0.052083
14.925000,0.052414
14.927778,0.054770
14.930556,0.037817
14.933333,-0.024895
14.936111,-0.038463
14.938889,-0.007384
14.941667,0.071234
14.944444,0.101675
14.947222,0.033186
14.950000,-0.005941
14.952778,-0.013587
14.955556,0.009137
14.958333,0.021149
14.961111,-0.009469
14.963889,0.049265
14.966667,0.024802
14.969444,0.009292
14.972222,0.023843
14.975000,-0.085612
14.977778,-0.074424
14.980556,-0.010678
14.983333,0.056632
14.986111,0.069534
14.988889,0.033366
14.991667,0.012627
14.994444,-0.100562
14.997222,-0.001867
15.000000,-0.008783
15.002778,0.060296
15.005556,0.009154
15.008333,0.024459
15.011111,-0.010843
15.013889,-0.013072
15.016667,-0.091286
15.019444,-0.007529
15.022222,0.000862
15.025000,0.067958
15.027778,0.060304
15.030556,0.037453
15.033333,-0.048470
15.036111,-0.004174
15.038889,0.043629
15.041667,0.001337
15.044444,0.099794
15.047222,0.106572
15.050000,0.039789
15.052778,-0.018449
15.055556,0.044280
15.058333,0.013534
15.061111,0.095556
15.063889,0.138609
15.066667,0.166078
15.069444,0.098854
15.072222,0.062859
15.075000,0.073726
15.077778,0.122482
15.080556,0.203694
15.083333,0.124612
15.086111,0.181281
15.088889,0.105831
15.091667,0.121669
15.094444,0.031932
15.097222,0.042666
15.100000,0.074299
15.102778,0.117890
15.105556,0.130024
15.108333,0.099184
15.111111,0.030166
15.113889,-0.053019
15.116667,-0.003345
15.119444,-0.010844
15.122222,0.044637
15.125000,-0.017198
15.127778,-0.084358
15.130556,-0.095251
15.133333,-0.097558
15.136111,-0.130350
15.138889,-0.092161
15.141667,-0.035413
15.144444,0.120971
15.147222,0.103112
15.150000,0.179204
15.152778,0.315273
15.155556,0.391134
15.158333,0.676478
15.161111,0.848633
15.163889,0.990744
15.166667,1.013128
15.169444,0.916976
15.172222,0.740832
15.175000,0.595553
15.177778,0.413783
15.180556,0.329178
15.183333,0.225657
15.186111,0.129200
15.188889,-0.028579
15.191667,-0.129367
15.194444,-0.252246
15.197222,-0.299386
15.200000,-0.276814
15.202778,-0.298888
15.205556,-0.290721
15.208333,-0.363101
15.211111,-0.393147
15.213889,-0.357154
15.216667,-0.314829
15.219444,-0.298657
15.222222,-0.168227
15.225000,-0.148266
15.227778,-0.116002
15.230556,-0.087255
15.233333,-0.119028
15.236111,-0.107805
15.238889,-0.034095
15.241667,-0.063536
15.244444,-0.043385
15.247222,-0.043587
15.250000,-0.065909
15.252778,-0.165674
15.255556,-0.110784
15.258333,-0.095195
15.261111,-0.011632
15.263889,0.007132
15.266667,-0.023080
15.269444,-0.019646
15.272222,-0.053849
15.275000,-0.113542
15.277778,-0.084179
15.280556,-0.091764
15.283333,-0.019207
15.286111,-0.000840
15.288889,-0.001641
15.291667,-0.069398
15.294444,-0.075407
15.297222,-0.080213
15.300000,0.005923
15.302778,0.058118
15.305556,0.074908
15.308333,0.045795
15.311111,-0.035832
15.313889,-0.030788
15.316667,-0.013249
15.319444,0.029110
15.322222,0.091999
15.325000,0.158148
15.327778,0.129658
15.330556,0.042570
15.333333,0.065545
15.336111,0.068170
15.338889,0.061892
15.341667,0.160587
15.344444,0.161156
15.347222,0.118939
15.350000,0.142344
15.352778,0.102140
15.355556,0.082550
15.358333,0.116580
15.361111,0.141669
15.363889,0.214184
15.366667,0.192936
15.369444,0.165920
15.372222,0.131371
15.375000,0.067945
15.377778,0.092634
15.380556,0.092239
15.383333,0.207599
15.386111,0.154737
15.388889,0.161247
15.391667,0.121668
15.394444,0.099092
15.397222,0.049958
15.400000,0.115987
15.402778,0.199407
15.405556,0.204266
15.408333,0.150417
15.411111,0.080683
15.413889,0.002101
15.416667,0.048853
15.419444,0.048367
15.422222,0.101832
15.425000,0.074928
15.427778,0.061905
15.430556,0.022288
15.433333,-0.018674
15.436111,-0.023598
15.438889,-0.034382
15.441667,-0.023465
15.444444,0.081805
15.447222,0.089065
15.450000,-0.017931
15.452778,-0.116498
15.455556,-0.117705
15.458333,-0.061449
15.461111,-0.000497
15.463889,-0.052996
15.466667,-0.029438
15.469444,-0.059522
15.472222,-0.085022
15.475000,-0.143539
15.477778,-0.166379
15.480556,-0.063797
15.483333,-0.017569
15.486111,-0.053332
15.488889,-0.071544
15.491667,-0.142755
15.494444,-0.180624
15.497222,-0.115797
15.500000,-0.098743
15.502778,-0.059254
15.505556,-0.019696
15.508333,-0.122226
15.511111,-0.150686
15.513889,-0.160588
15.516667,-0.179777
15.519444,-0.105838
15.522222,-0.095145
15.525000,-0.102370
15.527778,-0.089341
15.530556,-0.127821
15.533333,-0.140249
15.536111,-0.160868
15.538889,-0.129589
15.541667,-0.092321
15.544444,-0.083909
15.547222,-0.111231
15.550000,-0.119899
15.552778,-0.177356
15.555556,-0.128081
15.558333,-0.114728
15.561111,-0.094351
15.563889,-0.072528
15.566667,-0.090622
15.569444,-0.160844
15.572222,-0.170715
15.575000,-0.179439
15.577778,-0.158119
15.580556,-0.110471
15.583333,-0.062667
15.586111,-0.107752
15.588889,-0.137721
15.591667,-0.116158
15.594444,-0.161142
15.597222,-0.185400
15.600000,-0.138930
15.602778,-0.100828
15.605556,-0.086192
15.608333,-0.097525
15.611111,-0.078079
15.613889,-0.178639
15.616667,-0.161084
15.619444,-0.197248
15.622222,-0.120686
15.625000,-0.051717
15.627778,-0.094671
15.630556,-0.279531
15.633333,-0.162547
15.636111,-0.129193
15.638889,-0.217015
15.641667,-0.069735
15.644444,-0.174510
15.647222,-0.074422
15.650000,-0.141392
15.652778,-0.250198
15.655556,-0.177513
15.658333,-0.132388
15.661111,-0.114148
15.663889,-0.077884
15.666667,-0.111707
15.669444,-0.190058
15.672222,-0.154520
15.675000,-0.140876
15.677778,-0.141850
15.680556,-0.194777
15.683333,-0.146190
15.686111,-0.122656
15.688889,-0.175163
15.691667,-0.168358
15.694444,-0.182327
15.697222,-0.226300
15.700000,-0.121974
15.702778,-0.089145
15.705556,-0.112875
15.708333,-0.126031
15.711111,-0.221632
15.713889,-0.203167
15.716667,-0.189467
15.719444,-0.150177
15.722222,-0.103216
15.725000,-0.089556
15.727778,-0.122832
15.730556,-0.147290
15.733333,-0.160583
15.736111,-0.197338
15.738889,-0.155203
15.741667,-0.128352
15.744444,-0.118062
15.747222,-0.094040
15.750000,-0.164810
15.752778,-0.174992
15.755556,-0.196784
15.758333,-0.182622
15.761111,-0.141355
15.763889,-0.116976
15.766667,-0.154890
15.769444,-0.128744
15.772222,-0.174199
15.775000,-0.173604
15.777778,-0.197261
15.780556,-0.083714
15.783333,-0.117425
15.786111,-0.128675
15.788889,-0.162183
15.791667,-0.226555
15.794444,-0.152859
15.797222,-0.146823
15.800000,-0.131682
15.802778,-0.138332
15.805556,-0.046216
15.808333,-0.135385
15.811111,-0.175040
15.813889,-0.153766
15.816667,-0.173460
15.819444,-0.092598
15.822222,-0.110366
15.825000,-0.111892
15.827778,-0.136207
15.830556,-0.214090
15.833333,-0.201079
15.836111,-0.161810
15.838889,-0.147941
15.841667,-0.122706
15.844444,-0.128263
15.847222,-0.101674
15.850000,-0.115257
15.852778,-0.169553
15.855556,-0.186546
15.858333,-0.188883
15.861111,-0.093979
15.863889,-0.180569
15.866667,-0.074617
15.869444,-0.038665
15.872222,-0.196099
15.875000,-0.169376
15.877778,-0.137116
15.880556,-0.101753
15.883333,-0.013275
15.886111,-0.017026
15.888889,-0.046597
15.891667,-0.059196
15.894444,-0.096698
15.897222,0.019029
15.900000,-0.024166
15.902778,0.023993
15.905556,-0.014793
15.908333,0.002087
15.911111,0.015271
15.913889,-0.086245
15.916667,-0.106181
15.919444,-0.006664
15.922222,0.071704
15.925000,0.045399
15.927778,0.010318
15.930556,-0.083382
15.933333,-0.056993
15.936111,-0.063588
15.938889,-0.116857
15.941667,0.002244
15.944444,0.004115
15.947222,-0.008468
15.950000,-0.078038
15.952778,-0.131991
15.955556,-0.167757
15.958333,-0.155750
15.961111,-0.215781
15.963889,-0.192534
15.966667,-0.179898
15.969444,-0.190432
15.972222,-0.195631
15.975000,-0.179665
15.977778,-0.083765
15.980556,0.035667
15.983333,0.115900
15.986111,0.289396
15.988889,0.387478
15.991667,0.533330
15.994444,0.674939
15.997222,0.678924
16.000000,0.929115
16.002778,0.873107
16.005556,0.741914
16.008333,0.639251
16.011111,0.355329
16.013889,0.171577
16.016667,0.009916
16.019444,-0.010526
16.022222,-0.116149
16.025000,-0.164915
16.027778,-0.212121
16.030556,-0.323130
16.033333,-0.420204
16.036111,-0.422496
16.038889,-0.371188
16.041667,-0.402923
16.044444,-0.377007
16.047222,-0.364933
16.050000,-0.336906
16.052778,-0.393740
16.055556,-0.354096
16.058333,-0.328390
16.061111,-0.240995
16.063889,-0.162531
16.066667,-0.130186
16.069444,-0.093753
16.072222,-0.160081
16.075000,-0.213495
16.077778,-0.184689
16.080556,-0.076909
16.083333,-0.046727
16.086111,-0.073402
16.088889,-0.114932
16.091667,-0.107485
16.094444,-0.192598
16.097222,-0.137215
16.100000,-0.039363
16.102778,-0.059680
16.105556,-0.074481
16.108333,-0.059150
16.111111,-0.123354
16.113889,-0.176324
16.116667,-0.104814
16.119444,-0.052376
16.122222,-0.048755
16.125000,-0.026875
16.127778,-0.055911
16.130556,-0.065690
16.133333,-0.105658
16.136111,-0.115462
16.138889,0.009156
16.141667,0.016402
16.144444,0.051984
16.147222,0.058759
16.150000,0.025653
16.152778,-0.039463
16.155556,-0.021019
16.158333,-0.004161
16.161111,0.068034
16.163889,0.103832
16.166667,0.087131
16.169444,0.032662
16.172222,0.044433
16.175000,0.024104
16.177778,-0.000913
16.180556,0.119158
16.183333,0.174363
16.186111,0.231284
16.188889,0.119604
16.191667,0.078264
16.194444,0.041444
16.197222,0.095784
16.200000,0.137044
16.202778,0.147350
16.205556,0.179038
16.208333,0.101579
16.211111,0.146756
16.213889,0.065322
16.216667,0.089694
16.219444,0.080424
16.222222,0.143736
16.225000,0.167157
16.227778,0.153179
16.230556,0.122317
16.233333,0.111150
16.236111,0.080440
16.238889,0.110917
16.241667,0.160849
16.244444,0.151769
16.247222,0.115329
16.250000,0.100869
16.252778,0.056788
16.255556,0.025315
16.258333,-0.021393
16.261111,0.031253
16.263889,0.070338
16.266667,0.090592
16.269444,0.024391
16.272222,0.010945
16.275000,-0.008717
16.277778,-0.001241
16.280556,0.033145
16.283333,-0.005842
16.286111,0.037416
16.288889,-0.030858
16.291667,-0.109551
16.294444,-0.097946
16.297222,-0.043296
16.300000,-0.035224
16.302778,0.045823
16.305556,-0.002089
16.308333,0.038482
16.311111,-0.074718
16.313889,-0.111940
16.316667,-0.149710
16.319444,-0.045515
16.322222,-0.054937
16.325000,-0.043042
16.327778,-0.004445
16.330556,-0.050136
16.333333,-0.086523
16.336111,-0.135836
16.338889,-0.097253
16.341667,-0.055905
16.344444,-0.006743
16.347222,0.005226
16.350000,-0.068752
16.352778,-0.058865
16.355556,-0.102057
16.358333,-0.111620
16.361111,-0.037386
16.363889,0.019105
16.366667,0.024537
16.369444,-0.034030
16.372222,-0.109251
16.375000,-0.133909
16.377778,-0.091759
16.380556,-0.017466
16.383333,-0.019495
16.386111,-0.014609
16.388889,-0.055989
16.391667,-0.108855
16.394444,-0.127495
16.397222,-0.106991
16.400000,-0.020559
16.402778,-0.040333
16.405556,-0.019959
16.408333,-0.071067
16.411111,-0.065029
16.413889,-0.074728
16.416667,-0.062622
16.419444,-0.069946
16.422222,-0.017299
16.425000,-0.020576
16.427778,-0.017288
16.430556,-0.063827
16.433333,-0.105410
16.436111,-0.106000
16.438889,-0.065979
16.441667,-0.045547
16.444444,-0.019041
16.447222,0.029234
16.450000,0.021746
16.452778,-0.133282
16.455556,-0.145151
16.458333,-0.111116
16.461111,-0.042673
16.463889,0.017910
16.466667,0.005821
16.469444,-0.040644
16.472222,-0.070026
16.475000,-0.123784
16.477778,-0.091749
16.480556,-0.043469
16.483333,-0.055036
16.486111,-0.037926
16.488889,-0.065876
16.491667,-0.050664
16.494444,-0.089724
16.497222,-0.067069
16.500000,-0.101542
16.502778,-0.051810
16.505556,0.024281
16.508333,-0.102466
16.511111,-0.023717
16.513889,-0.144286
16.516667,-0.059850
16.519444,-0.076434
16.522222,0.023269
16.525000,0.106664
16.527778,-0.074879
16.530556,-0.025885
16.533333,-0.134850
16.536111,-0.070724
16.538889,-0.059084
16.541667,-0.006123
16.544444,-0.012363
16.547222,0.028231
16.550000,-0.076172
16.552778,-0.033008
16.555556,-0.092705
16.558333,-0.097499
16.561111,0.035301
16.563889,0.016086
16.566667,0.072423
16.569444,0.017988
16.572222,-0.082646
16.575000,-0.078339
16.577778,-0.053524
16.580556,0.030231
16.583333,0.032962
16.586111,0.029584
16.588889,-0.010808
16.591667,-0.047652
16.594444,-0.030460
16.597222,-0.057770
16.600000,-0.030650
16.602778,0.003346
16.605556,0.015387
16.608333,-0.033523
16.611111,-0.055292
16.613889,-0.016930
16.616667,-0.063615
16.619444,-0.000884
16.622222,-0.054775
16.625000,0.055280
16.627778,0.016313
16.630556,-0.033328
16.633333,-0.047291
16.636111,-0.070494
16.638889,-0.088668
16.641667,0.045601
16.644444,0.050250
16.647222,0.023387
16.650000,-0.033697
16.652778,-0.086324
16.655556,-0.045665
16.658333,0.021047
16.661111,0.021625
16.663889,0.004716
16.666667,0.050635
16.669444,0.008702
16.672222,-0.003461
16.675000,-0.027776
16.677778,-0.116261
16.680556,0.032133
16.683333,0.022193
16.686111,0.015556
16.688889,0.025289
16.691667,0.004254
16.694444,-0.077913
16.697222,0.007625
16.700000,0.052619
16.702778,0.075110
16.705556,0.065086
16.708333,0.044790
16.711111,0.070964
16.713889,-0.026139
16.716667,0.064416
16.719444,0.072334
16.722222,0.125855
16.725000,0.106197
16.727778,0.146024
16.730556,0.138594
16.733333,0.055517
16.736111,0.116103
16.738889,0.141820
16.741667,0.168716
16.744444,0.243135
16.747222,0.144001
16.750000,0.183866
16.752778,0.183598
16.755556,0.165315
16.758333,0.154377
16.761111,0.170505
16.763889,0.183789
16.766667,0.182405
16.769444,0.164627
16.772222,0.074029
16.775000,0.093232
16.777778,0.141668
16.780556,0.104597
16.783333,0.086535
16.786111,0.073045
16.788889,0.086549
16.791667,-0.002724
16.794444,-0.019805
16.797222,-0.066775
16.800000,0.006391
16.802778,0.021487
16.805556,0.035841
16.808333,0.057829
16.811111,0.046661
16.813889,0.190581
16.816667,0.238471
16.819444,0.432332
16.822222,0.598798
16.825000,0.769894
16.827778,0.927641
16.830556,1.032345
16.833333,0.986865
16.836111,0.934224
16.838889,0.888116
16.841667,0.786901
16.844444,0.672366
16.847222,0.454968
16.850000,0.279094
16.852778,0.124285
16.855556,-0.036092
16.858333,-0.079962
16.861111,-0.101997
16.863889,-0.130740
16.866667,-0.113422
16.869444,-0.196316
16.872222,-0.264439
16.875000,-0.369242
16.877778,-0.203818
16.880556,-0.229676
16.883333,-0.074128
16.886111,-0.136313
16.888889,-0.105735
16.891667,-0.149915
16.894444,-0.062129
16.897222,-0.066110
16.900000,-0.004408
16.902778,0.041583
16.905556,0.128873
16.908333,0.110907
16.911111,0.107602
16.913889,0.007014
16.916667,0.041186
16.919444,0.033497
16.922222,0.105756
16.925000,0.120956
16.927778,0.135593
16.930556,0.114551
16.933333,0.082597
16.936111,0.027605
16.938889,0.116717
16.941667,0.131830
16.944444,0.152254
16.947222,0.134719
16.950000,0.106126
16.952778,0.142479
16.955556,0.094424
16.958333,0.120951
16.961111,0.156557
16.963889,0.274632
16.966667,0.243989
16.969444,0.156167
16.972222,0.136641
16.975000,0.128704
16.977778,0.165755
16.980556,0.189764
16.983333,0.267362
16.986111,0.310360
16.988889,0.206516
16.991667,0.179039
16.994444,0.183205
16.997222,0.204535
17.000000,0.324784
17.002778,0.341903
17.005556,0.359612
17.008333,0.307316
17.011111,0.272417
17.013889,0.215028
17.016667,0.292711
17.019444,0.325093
17.022222,0.395684
17.025000,0.373951
17.027778,0.362823
17.030556,0.335329
17.033333,0.325621
17.036111,0.253588
17.038889,0.351414
17.041667,0.371802
17.044444,0.365109
17.047222,0.322832
17.050000,0.341654
17.052778,0.348816
17.055556,0.341908
17.058333,0.323103
17.061111,0.409285
17.063889,0.374293
17.066667,0.395207
17.069444,0.312648
17.072222,0.263661
17.075000,0.234246
17.077778,0.203603
17.080556,0.337552
17.083333,0.306780
17.086111,0.297971
17.088889,0.248921
17.091667,0.228221
17.094444,0.255146
17.097222,0.268169
17.100000,0.186103
17.102778,0.256007
17.105556,0.239134
17.108333,0.268373
17.111111,0.198261
17.113889,0.133995
17.116667,0.152556
17.119444,0.164588
17.122222,0.262396
17.125000,0.242808
17.127778,0.223541
17.130556,0.077866
17.133333,0.116840
17.136111,0.173581
17.138889,0.177006
17.141667,0.120486
17.144444,0.187621
17.147222,0.147222
17.150000,0.193765
17.152778,0.109194
17.155556,0.065883
17.158333,0.112410
17.161111,0.073715
17.163889,0.147926
17.166667,0.176731
17.169444,0.165410
17.172222,0.040159
17.175000,0.068429
17.177778,0.127472
17.180556,0.094035
17.183333,0.178755
17.186111,0.177318
17.188889,0.196746
17.191667,0.096244
17.194444,0.073759
17.197222,0.115551
17.200000,0.088520
17.202778,0.160135
17.205556,0.164214
17.208333,0.149695
17.211111,0.137458
17.213889,0.099013
17.216667,0.063896
17.219444,0.125377
17.222222,0.207125
17.225000,0.155655
17.227778,0.167422
17.230556,0.116788
17.233333,0.086416
17.236111,0.036048
17.238889,0.157522
17.241667,0.134418
17.244444,0.213020
17.247222,0.153007
17.250000,0.114928
17.252778,0.132131
17.255556,0.114959
17.258333,0.115985
17.261111,0.175000
17.263889,0.173729
17.266667,0.178784
17.269444,0.124898
17.272222,0.131374
17.275000,0.065913
17.277778,0.149451
17.280556,0.136560
17.283333,0.181582
17.286111,0.207721
17.288889,0.156098
17.291667,0.104646
17.294444,0.088740
17.297222,0.127688
17.300000,0.119581
17.302778,0.174269
17.305556,0.189586
17.308333,0.191254
17.311111,0.120496
17.313889,0.148129
17.316667,0.093135
17.319444,0.125583
17.322222,0.168665
17.325000,0.152414
17.327778,0.143203
17.330556,0.117811
17.333333,0.133432
17.336111,0.094921
17.338889,0.111496
17.341667,0.205165
17.344444,0.239374
17.347222,0.219787
17.350000,0.118451
17.352778,0.091102
17.355556,0.149646
17.358333,0.126918
17.361111,0.153961
17.363889,0.213625
17.366667,0.218808
17.369444,0.137020
17.372222,0.120114
17.375000,0.123652
17.377778,0.079089
17.380556,0.155267
17.383333,0.156257
17.386111,0.164034
17.388889,0.146930
17.391667,0.136197
17.394444,0.088140
17.397222,0.089439
17.400000,0.148890
17.402778,0.151382
17.405556,0.209734
17.408333,0.206708
17.411111,0.128422
17.413889,0.094964
17.416667,0.116055
17.419444,0.078738
17.422222,0.196635
17.425000,0.291560
17.427778,0.177071
17.430556,0.136461
17.433333,0.127824
17.436111,0.151289
17.438889,0.161154
17.441667,0.109426
17.444444,0.215321
17.447222,0.264718
17.450000,0.168008
17.452778,0.076466
17.455556,0.108688
17.458333,0.086117
17.461111,0.203682
17.463889,0.167961
17.466667,0.195233
17.469444,0.132700
17.472222,0.101262
17.475000,0.144418
17.477778,0.120833
17.480556,0.141806
17.483333,0.158870
17.486111,0.140782
17.488889,0.129530
17.491667,0.128340
17.494444,0.130158
17.497222,0.094885
17.500000,0.197696
17.502778,0.167610
17.505556,0.193278
17.508333,0.144261
17.511111,0.164900
17.513889,0.169056
17.516667,0.058055
17.519444,0.136559
17.522222,0.227512
17.525000,0.166284
17.527778,0.211633
17.530556,0.193868
17.533333,0.129050
17.536111,0.144372
17.538889,0.216212
17.541667,0.270393
17.544444,0.241590
17.547222,0.224585
17.550000,0.183402
17.552778,0.211339
17.555556,0.139696
17.558333,0.207497
17.561111,0.270233
17.563889,0.291657
17.566667,0.320624
17.569444,0.362884
17.572222,0.248718
17.575000,0.227335
17.577778,0.293053
17.580556,0.313221
17.583333,0.384635
17.586111,0.349031
17.588889,0.303889
17.591667,0.211148
17.594444,0.185689
17.597222,0.182658
17.600000,0.278807
17.602778,0.255381
17.605556,0.334685
17.608333,0.262882
17.611111,0.200922
17.613889,0.140073
17.616667,0.172598
17.619444,0.146312
17.622222,0.160513
17.625000,0.220557
17.627778,0.155799
17.630556,0.080745
17.633333,0.065398
17.636111,0.048244
17.638889,0.109031
17.641667,0.150456
17.644444,0.315162
17.647222,0.301966
17.650000,0.433539
17.652778,0.478932
17.655556,0.657980
17.658333,0.847742
17.661111,1.052305
17.663889,1.127052
17.666667,1.217665
17.669444,1.166715
17.672222,0.954975
17.675000,0.791297
17.677778,0.618323
17.680556,0.495668
17.683333,0.444739
17.686111,0.247182
17.688889,0.124883
17.691667,0.084560
17.694444,-0.030803
17.697222,-0.027186
17.700000,-0.109852
17.702778,-0.088382
17.705556,-0.123060
17.708333,-0.130982
17.711111,-0.223515
17.713889,-0.158844
17.716667,-0.134490
